1.010000000000000000e+02 0.000000000000000000e+00
1.020000000000000000e+02 0.000000000000000000e+00
1.030000000000000000e+02 0.000000000000000000e+00
1.040000000000000000e+02 0.000000000000000000e+00
1.050000000000000000e+02 0.000000000000000000e+00
1.060000000000000000e+02 0.000000000000000000e+00
1.070000000000000000e+02 0.000000000000000000e+00
1.080000000000000000e+02 0.000000000000000000e+00
1.090000000000000000e+02 3.507908110350533182e+00
1.100000000000000000e+02 4.671253975114064261e+00
1.110000000000000000e+02 7.721123750466692570e+01
1.120000000000000000e+02 6.152816552997260402e+01
1.130000000000000000e+02 8.205395002073833766e+00
1.140000000000000000e+02 2.248972279340363301e+01
1.150000000000000000e+02 3.086797934660859255e+01
1.160000000000000000e+02 3.614425680771618232e+01
1.170000000000000000e+02 5.011888182534748637e+01
1.180000000000000000e+02 6.849515818294963765e+01
1.190000000000000000e+02 4.685960525409662836e+01
1.200000000000000000e+02 4.677547084007458977e+01
1.210000000000000000e+02 7.733679523335428030e+01
1.220000000000000000e+02 1.243530239161997315e+02
1.230000000000000000e+02 1.872767701929063264e+02
1.240000000000000000e+02 2.040253522090852698e+02
1.250000000000000000e+02 1.869870280024889837e+02
1.260000000000000000e+02 1.855548403028417113e+02
1.270000000000000000e+02 2.732272987554442807e+02
1.280000000000000000e+02 3.443981110972827082e+02
1.290000000000000000e+02 4.298085903546974578e+02
1.300000000000000000e+02 5.373625470441825200e+02
1.310000000000000000e+02 5.880343890479158517e+02
1.320000000000000000e+02 6.646096287907075748e+02
1.330000000000000000e+02 7.701507536818079416e+02
1.340000000000000000e+02 8.578708314872428673e+02
1.350000000000000000e+02 8.532816497614596756e+02
1.360000000000000000e+02 7.252253505704206873e+02
1.370000000000000000e+02 5.511351936320270397e+02
1.380000000000000000e+02 4.377498417548232510e+02
1.390000000000000000e+02 4.217284605476041861e+02
1.400000000000000000e+02 4.118772179423355624e+02
1.410000000000000000e+02 3.536967638249325887e+02
1.420000000000000000e+02 2.819716056419832739e+02
1.430000000000000000e+02 2.510165565650283099e+02
1.440000000000000000e+02 2.260583105972624196e+02
1.450000000000000000e+02 2.212252303878863415e+02
1.460000000000000000e+02 1.993857504874511335e+02
1.470000000000000000e+02 1.575523362505184366e+02
1.480000000000000000e+02 1.929765383945241695e+02
1.490000000000000000e+02 1.743315569383943853e+02
1.500000000000000000e+02 1.295650239734551974e+02
1.510000000000000000e+02 9.307371612943404671e+01
1.520000000000000000e+02 7.611287452395758635e+01
1.530000000000000000e+02 9.241294907922033985e+01
1.540000000000000000e+02 9.189860286662522526e+01
1.550000000000000000e+02 7.904492093963914101e+01
1.560000000000000000e+02 8.060298698402802131e+01
1.570000000000000000e+02 5.915632094586167966e+01
1.580000000000000000e+02 2.847618076524262776e+01
1.590000000000000000e+02 1.159945041651100794e+01
1.600000000000000000e+02 1.031812954781174874e+01
1.610000000000000000e+02 3.564718102032384905e+01
1.620000000000000000e+02 4.625177225886744736e+01
1.630000000000000000e+02 2.912191308649670063e+01
1.640000000000000000e+02 2.183244273537962243e+01
1.650000000000000000e+02 5.985633828666290412e+01
1.660000000000000000e+02 8.205842025513385352e+01
1.670000000000000000e+02 8.756442128577353401e+01
1.680000000000000000e+02 9.436695708151825102e+01
1.690000000000000000e+02 1.055983346525612916e+02
1.700000000000000000e+02 6.358895576228981383e+01
1.710000000000000000e+02 3.888728566894835126e+01
1.720000000000000000e+02 3.288491170918903350e+01
1.730000000000000000e+02 1.809192519145373623e+01
1.740000000000000000e+02 1.102940084007488863e+01
1.750000000000000000e+02 3.336826848164284343e+01
1.760000000000000000e+02 5.127137809583061312e+01
1.770000000000000000e+02 8.657179958929610564e+01
1.780000000000000000e+02 1.661147243103099811e+02
1.790000000000000000e+02 2.497885119269862457e+02
1.800000000000000000e+02 3.575329400746728652e+02
1.810000000000000000e+02 4.770472886330626920e+02
1.820000000000000000e+02 5.701952332296214081e+02
1.830000000000000000e+02 6.941516585148316381e+02
1.840000000000000000e+02 8.577901180423059486e+02
1.850000000000000000e+02 1.052509902924702374e+03
1.860000000000000000e+02 1.270800742584524414e+03
1.870000000000000000e+02 1.521840779552054755e+03
1.880000000000000000e+02 1.786634095415888851e+03
1.890000000000000000e+02 2.068330507156189924e+03
1.900000000000000000e+02 2.372726763168810521e+03
1.910000000000000000e+02 2.693955172370880064e+03
1.920000000000000000e+02 3.066514378552168637e+03
1.930000000000000000e+02 3.418098522713128204e+03
1.940000000000000000e+02 3.683887192906033306e+03
1.950000000000000000e+02 3.826027707114707482e+03
1.960000000000000000e+02 3.773473127981746529e+03
1.970000000000000000e+02 3.782804617506741124e+03
1.980000000000000000e+02 3.862220215263375394e+03
1.990000000000000000e+02 3.926871602364655246e+03
2.000000000000000000e+02 3.984445434557146200e+03
2.010000000000000000e+02 3.985006616963915349e+03
2.020000000000000000e+02 3.906043359676416912e+03
2.030000000000000000e+02 3.760525154324828691e+03
2.040000000000000000e+02 3.587991656159268587e+03
2.050000000000000000e+02 3.294776300767475732e+03
2.060000000000000000e+02 2.934821837792991118e+03
2.070000000000000000e+02 2.577460169431767554e+03
2.080000000000000000e+02 2.258395380833849231e+03
2.090000000000000000e+02 1.837208142086702765e+03
2.100000000000000000e+02 1.501313337896703615e+03
2.110000000000000000e+02 1.205399414229416834e+03
2.120000000000000000e+02 8.977651954573714193e+02
2.130000000000000000e+02 7.271007733042931704e+02
2.140000000000000000e+02 5.348763154947110934e+02
2.150000000000000000e+02 3.917944891516287953e+02
2.160000000000000000e+02 3.143862477494284349e+02
2.170000000000000000e+02 2.132330225264461774e+02
2.180000000000000000e+02 1.317676735946898248e+02
2.190000000000000000e+02 9.173213513171552336e+01
2.200000000000000000e+02 5.916086008089673243e+01
2.210000000000000000e+02 1.552248476664581034e+01
2.220000000000000000e+02 9.384584714374619807e+01
2.230000000000000000e+02 1.165842524787387759e+02
2.240000000000000000e+02 1.629877817503102051e+02
2.250000000000000000e+02 2.817532452395778364e+02
2.260000000000000000e+02 4.120187899813325316e+02
2.270000000000000000e+02 7.004399064288668342e+02
2.280000000000000000e+02 1.043802908940050429e+03
2.290000000000000000e+02 1.389698539929479466e+03
2.300000000000000000e+02 1.734644332088779720e+03
2.310000000000000000e+02 2.049329423771001530e+03
2.320000000000000000e+02 2.475614366106613488e+03
2.330000000000000000e+02 3.009319692594900971e+03
2.340000000000000000e+02 3.610786348682850075e+03
2.350000000000000000e+02 4.258128129433728645e+03
2.360000000000000000e+02 5.085910728064709474e+03
2.370000000000000000e+02 6.148649644057236401e+03
2.380000000000000000e+02 7.386251634384086174e+03
2.390000000000000000e+02 8.730777825762294015e+03
2.400000000000000000e+02 1.035347462974486007e+04
2.410000000000000000e+02 1.212604200331812535e+04
2.420000000000000000e+02 1.396550936735119285e+04
2.430000000000000000e+02 1.544263801700892327e+04
2.440000000000000000e+02 1.553136842181667453e+04
2.450000000000000000e+02 1.373489262601122391e+04
2.460000000000000000e+02 1.085116184194148627e+04
2.470000000000000000e+02 7.989959340937356501e+03
2.480000000000000000e+02 6.045857997303465709e+03
2.490000000000000000e+02 4.809178875544499533e+03
2.500000000000000000e+02 4.026380238332289082e+03
2.510000000000000000e+02 3.601789093134203085e+03
2.520000000000000000e+02 3.485094620203277373e+03
2.530000000000000000e+02 3.568626508400745934e+03
2.540000000000000000e+02 3.751706254511509087e+03
2.550000000000000000e+02 4.077436225057047068e+03
2.560000000000000000e+02 4.495685972827210207e+03
2.570000000000000000e+02 4.876550352416520582e+03
2.580000000000000000e+02 5.306600130056013768e+03
2.590000000000000000e+02 5.749695276291217851e+03
2.600000000000000000e+02 6.277080854179617745e+03
2.610000000000000000e+02 6.948818243103105488e+03
2.620000000000000000e+02 7.723897399917022994e+03
2.630000000000000000e+02 8.584760296204092811e+03
2.640000000000000000e+02 9.679201091663187981e+03
2.650000000000000000e+02 1.095101155154532171e+04
2.660000000000000000e+02 1.225371001659405920e+04
2.670000000000000000e+02 1.382216641642471586e+04
2.680000000000000000e+02 1.537209703795894166e+04
2.690000000000000000e+02 1.691049211159511106e+04
2.700000000000000000e+02 1.848322543343012876e+04
2.710000000000000000e+02 2.000577061812904140e+04
2.720000000000000000e+02 2.101014195395147181e+04
2.730000000000000000e+02 2.118760212982165467e+04
2.740000000000000000e+02 2.061412683260732229e+04
2.750000000000000000e+02 1.955351904584109070e+04
2.760000000000000000e+02 1.834684583160516195e+04
2.770000000000000000e+02 1.730328099564407603e+04
2.780000000000000000e+02 1.649484259489733813e+04
2.790000000000000000e+02 1.584962599875544947e+04
2.800000000000000000e+02 1.521288454677453410e+04
2.810000000000000000e+02 1.480385753578095500e+04
2.820000000000000000e+02 1.424371070939638957e+04
2.830000000000000000e+02 1.332178216967434673e+04
2.840000000000000000e+02 1.204143713752331496e+04
2.850000000000000000e+02 1.053629303049158443e+04
2.860000000000000000e+02 8.991584598630983237e+03
2.870000000000000000e+02 7.535097886123177886e+03
2.880000000000000000e+02 6.213896165940652281e+03
2.890000000000000000e+02 5.022121391205129839e+03
2.900000000000000000e+02 4.043875148102075855e+03
2.910000000000000000e+02 3.132976712507755110e+03
2.920000000000000000e+02 2.297141926171700561e+03
2.930000000000000000e+02 1.595048621655267880e+03
2.940000000000000000e+02 1.043322053827016134e+03
2.950000000000000000e+02 6.808515482994657759e+02
2.960000000000000000e+02 3.935455782202882347e+02
2.970000000000000000e+02 1.456338261812927612e+02
2.980000000000000000e+02 1.350373318124709954e+00
2.990000000000000000e+02 1.000008339639079509e+02
3.000000000000000000e+02 1.427224756067158751e+01
3.010000000000000000e+02 -8.308779819577461367e+00
3.020000000000000000e+02 -2.804552010371531878e+01
3.030000000000000000e+02 4.952530937149973767e+01
3.040000000000000000e+02 5.380990574154676409e+01
3.050000000000000000e+02 1.098548710640954624e+02
3.060000000000000000e+02 9.247285483302341902e+01
3.070000000000000000e+02 4.629814925948350890e+01
3.080000000000000000e+02 2.758232987139577972e+02
3.090000000000000000e+02 4.766798693217215828e+02
3.100000000000000000e+02 6.129900856876153057e+02
3.110000000000000000e+02 7.575839989628661897e+02
3.120000000000000000e+02 9.926657185023798320e+02
3.130000000000000000e+02 1.145592440987346208e+03
3.140000000000000000e+02 1.330258589919101723e+03
3.150000000000000000e+02 1.443867996058908147e+03
3.160000000000000000e+02 1.437015487658162101e+03
3.170000000000000000e+02 1.388199743206803532e+03
3.180000000000000000e+02 1.384758424720032963e+03
3.190000000000000000e+02 1.448020428749223356e+03
3.200000000000000000e+02 1.572987295996682178e+03
3.210000000000000000e+02 1.767629065532976028e+03
3.220000000000000000e+02 2.092310825554871826e+03
3.230000000000000000e+02 2.553187179838214433e+03
3.240000000000000000e+02 2.919584667980089307e+03
3.250000000000000000e+02 3.134734219456545361e+03
3.260000000000000000e+02 3.264652655880524435e+03
3.270000000000000000e+02 3.284322136043135743e+03
3.280000000000000000e+02 3.113987052893595319e+03
3.290000000000000000e+02 2.876562025928236380e+03
3.300000000000000000e+02 2.658957864993779822e+03
3.310000000000000000e+02 2.466014970960384289e+03
3.320000000000000000e+02 2.192402939639083343e+03
3.330000000000000000e+02 1.953186764779090936e+03
3.340000000000000000e+02 1.827317162207011052e+03
3.350000000000000000e+02 1.827220158888197375e+03
3.360000000000000000e+02 1.875094049574778410e+03
3.370000000000000000e+02 2.074839274424395171e+03
3.380000000000000000e+02 2.309416396390790396e+03
3.390000000000000000e+02 2.500166367766027179e+03
3.400000000000000000e+02 2.662372278780339002e+03
3.410000000000000000e+02 2.881368087118856693e+03
3.420000000000000000e+02 2.944401737398879959e+03
3.430000000000000000e+02 2.923781165525824235e+03
3.440000000000000000e+02 2.865845410617998823e+03
3.450000000000000000e+02 2.754606477494296996e+03
3.460000000000000000e+02 2.707497953951464297e+03
3.470000000000000000e+02 2.596005604935708106e+03
3.480000000000000000e+02 2.381014743414232271e+03
3.490000000000000000e+02 2.038835108276298342e+03
3.500000000000000000e+02 1.552362166321033328e+03
3.510000000000000000e+02 1.080796005164904273e+03
3.520000000000000000e+02 6.110966603691375667e+02
3.530000000000000000e+02 2.574534626633447374e+02
3.540000000000000000e+02 7.612729792574040744e+01
3.550000000000000000e+02 5.676086330568467986e+01
3.560000000000000000e+02 8.289621500933417053e+01
3.570000000000000000e+02 6.551537247666416874e+01
3.580000000000000000e+02 4.939986956855417333e+01
3.590000000000000000e+02 3.506777261792320388e+01
3.600000000000000000e+02 5.735321445550913921e+01
3.610000000000000000e+02 1.157052982576219620e+02
3.620000000000000000e+02 2.570583254096620180e+02
3.630000000000000000e+02 4.651054496784861385e+02
3.640000000000000000e+02 6.697255475627451915e+02
3.650000000000000000e+02 1.024185616179212275e+03
3.660000000000000000e+02 1.381744450736356384e+03
3.670000000000000000e+02 1.763027342874924216e+03
3.680000000000000000e+02 2.179617538892345692e+03
3.690000000000000000e+02 2.609760413814558433e+03
3.700000000000000000e+02 3.140266695084014373e+03
3.710000000000000000e+02 3.653884561086915710e+03
3.720000000000000000e+02 4.279031150559937487e+03
3.730000000000000000e+02 5.045681755444945338e+03
3.740000000000000000e+02 5.827235542626023744e+03
3.750000000000000000e+02 6.621480027374534075e+03
3.760000000000000000e+02 7.209965638871592091e+03
3.770000000000000000e+02 7.486081416303673905e+03
3.780000000000000000e+02 7.425844997511405381e+03
3.790000000000000000e+02 7.042005160547611922e+03
3.800000000000000000e+02 6.498941798796943658e+03
3.810000000000000000e+02 5.969201114475325994e+03
3.820000000000000000e+02 5.511891640945866129e+03
3.830000000000000000e+02 5.142137541381461233e+03
3.840000000000000000e+02 4.912161769390293557e+03
3.850000000000000000e+02 4.888900136278780337e+03
3.860000000000000000e+02 4.901208289566479834e+03
3.870000000000000000e+02 4.913590064302012252e+03
3.880000000000000000e+02 4.966275153702551506e+03
3.890000000000000000e+02 5.076862555693840477e+03
3.900000000000000000e+02 5.353750859365284668e+03
3.910000000000000000e+02 5.768005002281692214e+03
3.920000000000000000e+02 6.244803171126328380e+03
3.930000000000000000e+02 6.710422153702540527e+03
3.940000000000000000e+02 7.106081809997936034e+03
3.950000000000000000e+02 7.455006284588266681e+03
3.960000000000000000e+02 7.850171365276906727e+03
3.970000000000000000e+02 8.443896632233962009e+03
3.980000000000000000e+02 9.351680827457459600e+03
3.990000000000000000e+02 1.046312146442645826e+04
4.000000000000000000e+02 1.183767430408626933e+04
4.010000000000000000e+02 1.332730101617584114e+04
4.020000000000000000e+02 1.489917594275046758e+04
4.030000000000000000e+02 1.657049314042729020e+04
4.040000000000000000e+02 1.825507764620489615e+04
4.050000000000000000e+02 1.935855507778469837e+04
4.060000000000000000e+02 1.954066084007467362e+04
4.070000000000000000e+02 1.890384017005390706e+04
4.080000000000000000e+02 1.785376894005391296e+04
4.090000000000000000e+02 1.691746564613149894e+04
4.100000000000000000e+02 1.631897544587309312e+04
4.110000000000000000e+02 1.587744397635344467e+04
4.120000000000000000e+02 1.515126512756686679e+04
4.130000000000000000e+02 1.371065102053518785e+04
4.140000000000000000e+02 1.183013862061817235e+04
4.150000000000000000e+02 9.703633111387702229e+03
4.160000000000000000e+02 7.760997710018680664e+03
4.170000000000000000e+02 6.121863683053328714e+03
4.180000000000000000e+02 4.678589771416741314e+03
4.190000000000000000e+02 3.656781924911842907e+03
4.200000000000000000e+02 2.696033590541385365e+03
4.210000000000000000e+02 1.890871136693638618e+03
4.220000000000000000e+02 1.311974563368590452e+03
4.230000000000000000e+02 8.815616991495522825e+02
4.240000000000000000e+02 6.259106964737551380e+02
4.250000000000000000e+02 4.200394469197222520e+02
4.260000000000000000e+02 1.749028993467398152e+02
4.270000000000000000e+02 9.256935214063220485e+01
4.280000000000000000e+02 1.147152852312720626e+02
4.290000000000000000e+02 6.305965307756067517e+01
4.300000000000000000e+02 5.919609403857855767e+01
4.310000000000000000e+02 3.479903528520701173e+01
4.320000000000000000e+02 1.042158700684353079e+02
4.330000000000000000e+02 7.612345450321528517e+01
4.340000000000000000e+02 1.492037258245172211e+02
4.350000000000000000e+02 1.412186546246372245e+02
4.360000000000000000e+02 1.143622422319025134e+02
4.370000000000000000e+02 2.546906402820987125e+02
4.380000000000000000e+02 3.603393273745350029e+02
4.390000000000000000e+02 4.434980487243317953e+02
4.400000000000000000e+02 5.095082248081313878e+02
4.410000000000000000e+02 5.485919794026140153e+02
4.420000000000000000e+02 5.643773565857704853e+02
4.430000000000000000e+02 5.853109835718742033e+02
4.440000000000000000e+02 6.942031946484106584e+02
4.450000000000000000e+02 7.680334464841319004e+02
4.460000000000000000e+02 8.384535621032999870e+02
4.470000000000000000e+02 9.283131758348876019e+02
4.480000000000000000e+02 1.017404305040446502e+03
4.490000000000000000e+02 1.067707095001036123e+03
4.500000000000000000e+02 1.061412952914333118e+03
4.510000000000000000e+02 1.069560724745903144e+03
4.520000000000000000e+02 1.095579290335959968e+03
4.530000000000000000e+02 1.109040289359054213e+03
4.540000000000000000e+02 1.156566431653184054e+03
4.550000000000000000e+02 1.167133326420572303e+03
4.560000000000000000e+02 1.186750100186683767e+03
4.570000000000000000e+02 1.221270797137523459e+03
4.580000000000000000e+02 1.255034279552053704e+03
4.590000000000000000e+02 1.302496162207011366e+03
4.600000000000000000e+02 1.274540612113668658e+03
4.610000000000000000e+02 1.283529160306925860e+03
4.620000000000000000e+02 1.368333163658988724e+03
4.630000000000000000e+02 1.482943723086498949e+03
4.640000000000000000e+02 1.565454739112400375e+03
4.650000000000000000e+02 1.811791318191241089e+03
4.660000000000000000e+02 2.074427505289352666e+03
4.670000000000000000e+02 2.369660665836961925e+03
4.680000000000000000e+02 2.764743393901675063e+03
4.690000000000000000e+02 3.290275227131292013e+03
4.700000000000000000e+02 3.827353455507158287e+03
4.710000000000000000e+02 4.401753168014934090e+03
4.720000000000000000e+02 4.922332773283547795e+03
4.730000000000000000e+02 5.362524335615023119e+03
4.740000000000000000e+02 5.798144626218630037e+03
4.750000000000000000e+02 6.115813606098319724e+03
4.760000000000000000e+02 6.226720750466708523e+03
4.770000000000000000e+02 6.090274730761249884e+03
4.780000000000000000e+02 5.743540578510678642e+03
4.790000000000000000e+02 5.285305749637017470e+03
4.800000000000000000e+02 4.815090476042304545e+03
4.810000000000000000e+02 4.407624187474072642e+03
4.820000000000000000e+02 4.063522945032156713e+03
4.830000000000000000e+02 3.788657875544497983e+03
4.840000000000000000e+02 3.576032344462883430e+03
4.850000000000000000e+02 3.326719278780337845e+03
4.860000000000000000e+02 3.237460445758142214e+03
4.870000000000000000e+02 3.147064353380340890e+03
4.880000000000000000e+02 3.042674828458826141e+03
4.890000000000000000e+02 2.973674147479776366e+03
4.900000000000000000e+02 2.878089385524677255e+03
4.910000000000000000e+02 2.756866976146026900e+03
4.920000000000000000e+02 2.584460611779339615e+03
4.930000000000000000e+02 2.339571102260935277e+03
4.940000000000000000e+02 2.030066654013684683e+03
4.950000000000000000e+02 1.675274892345994658e+03
4.960000000000000000e+02 1.261376762289991575e+03
4.970000000000000000e+02 9.319723856876096306e+02
4.980000000000000000e+02 6.262602581414683982e+02
4.990000000000000000e+02 3.500077800248944300e+02
5.000000000000000000e+02 1.924918611491425509e+02
5.010000000000000000e+02 2.773483971624207101e+01
5.020000000000000000e+02 3.592865796722644234e+01
5.030000000000000000e+02 9.549315922838836457e+00
5.040000000000000000e+02 1.265136325451143762e+01
5.050000000000000000e+02 2.843803657519185890e+01
5.060000000000000000e+02 1.888378409995851470e+01
5.070000000000000000e+02 3.001254639908697541e+01
5.080000000000000000e+02 2.024626624766701255e+01
5.090000000000000000e+02 7.120923541269212365e+01
5.100000000000000000e+02 1.485380055382743194e+02
5.110000000000000000e+02 3.431112032358452097e+02
5.120000000000000000e+02 3.909236708627134931e+02
5.130000000000000000e+02 5.571956336029884369e+02
5.140000000000000000e+02 7.908018161169891300e+02
5.150000000000000000e+02 1.026875163002909403e+03
5.160000000000000000e+02 1.331580997925749671e+03
5.170000000000000000e+02 1.569106669570634722e+03
5.180000000000000000e+02 1.924336372666962689e+03
5.190000000000000000e+02 2.286223725368196938e+03
5.200000000000000000e+02 2.632808587844860540e+03
5.210000000000000000e+02 3.027862802530577028e+03
5.220000000000000000e+02 3.453681220286231110e+03
5.230000000000000000e+02 3.791429253266968317e+03
5.240000000000000000e+02 4.156258713130047909e+03
5.250000000000000000e+02 4.509731418170497818e+03
5.260000000000000000e+02 4.797320235843178125e+03
5.270000000000000000e+02 5.087064215930305181e+03
5.280000000000000000e+02 5.154502822858327818e+03
5.290000000000000000e+02 5.107942368180875746e+03
5.300000000000000000e+02 4.997075626633475622e+03
5.310000000000000000e+02 4.831000012445547327e+03
5.320000000000000000e+02 4.616497582866620178e+03
5.330000000000000000e+02 4.269841885915770945e+03
5.340000000000000000e+02 3.925925316116977683e+03
5.350000000000000000e+02 3.508059749066766472e+03
5.360000000000000000e+02 3.151009795270685572e+03
5.370000000000000000e+02 2.975622416303665887e+03
5.380000000000000000e+02 2.723279277892983373e+03
5.390000000000000000e+02 2.456339825140019457e+03
5.400000000000000000e+02 2.265271627255753174e+03
5.410000000000000000e+02 2.112917129433728405e+03
5.420000000000000000e+02 1.986898880522713625e+03
5.430000000000000000e+02 1.919349093134205305e+03
5.440000000000000000e+02 1.799041867869734688e+03
5.450000000000000000e+02 1.702373224642189143e+03
5.460000000000000000e+02 1.632774842803815091e+03
5.470000000000000000e+02 1.573205723708771984e+03
5.480000000000000000e+02 1.527700496370048540e+03
5.490000000000000000e+02 1.569255464744918982e+03
5.500000000000000000e+02 1.515298002489108285e+03
5.510000000000000000e+02 1.459291286040240038e+03
5.520000000000000000e+02 1.468537828701784520e+03
5.530000000000000000e+02 1.472015597593858274e+03
5.540000000000000000e+02 1.334051962041068919e+03
5.550000000000000000e+02 1.248034503732889561e+03
5.560000000000000000e+02 1.184135461315080647e+03
5.570000000000000000e+02 1.086522597801285201e+03
5.580000000000000000e+02 9.851606794690984543e+02
5.590000000000000000e+02 9.145813805849402343e+02
5.600000000000000000e+02 7.719746433520012943e+02
5.610000000000000000e+02 6.888713964322743095e+02
5.620000000000000000e+02 6.322464998548015274e+02
5.630000000000000000e+02 5.909375581829497150e+02
5.640000000000000000e+02 5.642039564405724832e+02
5.650000000000000000e+02 5.517854059323788078e+02
5.660000000000000000e+02 4.507292311553623563e+02
5.670000000000000000e+02 4.295186263015975214e+02
5.680000000000000000e+02 4.784236915370255474e+02
5.690000000000000000e+02 4.903319662310727836e+02
5.700000000000000000e+02 4.365192151006012864e+02
5.710000000000000000e+02 4.412454392034846933e+02
5.720000000000000000e+02 4.034911980709402997e+02
5.730000000000000000e+02 3.402831915370254023e+02
5.740000000000000000e+02 3.252941492221531234e+02
5.750000000000000000e+02 3.493121620074660996e+02
5.760000000000000000e+02 3.132950912881145769e+02
5.770000000000000000e+02 2.524700485376482106e+02
5.780000000000000000e+02 2.454196572583988711e+02
5.790000000000000000e+02 2.379745447417549826e+02
5.800000000000000000e+02 2.334599481642808882e+02
5.810000000000000000e+02 2.478871944836168950e+02
5.820000000000000000e+02 2.126829161169885083e+02
5.830000000000000000e+02 1.920031498859160592e+02
5.840000000000000000e+02 1.694516347988388532e+02
5.850000000000000000e+02 1.731528321717482299e+02
5.860000000000000000e+02 1.734571498444311715e+02
5.870000000000000000e+02 1.095492769757312175e+02
5.880000000000000000e+02 9.475880742791963485e+01
5.890000000000000000e+02 4.244056787595953040e+01
5.900000000000000000e+02 4.447935444720963716e+01
5.910000000000000000e+02 6.174904337274388411e+01
5.920000000000000000e+02 2.074697354075804157e+01
5.930000000000000000e+02 4.857021849201359487e+01
5.940000000000000000e+02 4.358287233768989921e+01
5.950000000000000000e+02 1.723179505911715736e+01
5.960000000000000000e+02 2.825662355320404018e+01
5.970000000000000000e+02 3.710622703795962707e+01
5.980000000000000000e+02 1.556235626840911657e+01
5.990000000000000000e+02 6.478742016386554781e+01
6.000000000000000000e+02 6.708390428749117618e+00
6.010000000000000000e+02 4.582179476664591355e+00
6.020000000000000000e+02 6.927039169466956636e+00
6.030000000000000000e+02 1.171131293134237694e+01
6.040000000000000000e+02 3.641822569591405312e+01
6.050000000000000000e+02 5.729464811449908979e+01
6.060000000000000000e+02 4.036309462974540452e+01
6.070000000000000000e+02 1.491649531736042178e+01
6.080000000000000000e+02 2.836589573324938840e+01
6.090000000000000000e+02 1.098279196017370474e+01
6.100000000000000000e+02 3.736182112632170060e+01
6.110000000000000000e+02 5.364983226509001923e+01
6.120000000000000000e+02 1.456107026135796545e+01
6.130000000000000000e+02 3.031971404065410525e+01
6.140000000000000000e+02 3.487044362920133267e+01
6.150000000000000000e+02 8.426261306782325988e+00
6.160000000000000000e+02 4.628079077162392707e+01
6.170000000000000000e+02 4.705260735794274041e+01
6.180000000000000000e+02 6.466355138353051757e+01
6.190000000000000000e+02 3.091151448662103363e+01
6.200000000000000000e+02 4.369576268768477689e+01
6.210000000000000000e+02 5.827624301390019923e+01
6.220000000000000000e+02 1.205997119477295740e+02
6.230000000000000000e+02 8.914923514831083651e+01
6.240000000000000000e+02 8.732564632856147568e+01
6.250000000000000000e+02 1.103187857083603376e+02
6.260000000000000000e+02 1.141751055175277969e+02
6.270000000000000000e+02 9.854765995851218463e+01
6.280000000000000000e+02 1.607102750518464234e+02
6.290000000000000000e+02 1.105735782949605976e+02
6.300000000000000000e+02 1.045080354428532274e+02
6.310000000000000000e+02 1.370447416424718199e+02
6.320000000000000000e+02 1.259844461522504702e+02
6.330000000000000000e+02 7.992566889234598193e+01
6.340000000000000000e+02 1.109277004355044483e+02
6.350000000000000000e+02 1.516333445550721990e+02
6.360000000000000000e+02 1.214420070939620473e+02
6.370000000000000000e+02 9.649923882206462622e+01
6.380000000000000000e+02 1.383749113876808110e+02
6.390000000000000000e+02 1.686757853764787001e+02
6.400000000000000000e+02 1.538759532559113552e+02
6.410000000000000000e+02 1.532930257622883516e+02
6.420000000000000000e+02 2.310899149968834649e+02
6.430000000000000000e+02 2.709817619788445882e+02
6.440000000000000000e+02 2.145492773490974798e+02
6.450000000000000000e+02 2.358781039825754249e+02
6.460000000000000000e+02 2.650677278365482721e+02
6.470000000000000000e+02 3.181831156813935877e+02
6.480000000000000000e+02 3.728336495540340820e+02
6.490000000000000000e+02 3.966130168222360339e+02
6.500000000000000000e+02 3.866781434557144053e+02
6.510000000000000000e+02 3.819014467330430307e+02
6.520000000000000000e+02 4.233794869944014749e+02
6.530000000000000000e+02 4.559148352209095378e+02
6.540000000000000000e+02 4.957215070510180226e+02
6.550000000000000000e+02 5.550722944409910724e+02
6.560000000000000000e+02 6.257592171748624423e+02
6.570000000000000000e+02 6.778073908751566705e+02
6.580000000000000000e+02 7.004839081103493754e+02
6.590000000000000000e+02 7.529350270275855337e+02
6.600000000000000000e+02 7.983198435918716314e+02
6.610000000000000000e+02 8.203520402613563647e+02
6.620000000000000000e+02 8.423005862684086651e+02
6.630000000000000000e+02 8.856622916217338570e+02
6.640000000000000000e+02 9.800435116573335108e+02
6.650000000000000000e+02 1.059472150591164336e+03
6.660000000000000000e+02 1.164861265035258839e+03
6.670000000000000000e+02 1.327823469612119425e+03
6.680000000000000000e+02 1.518266729516700707e+03
6.690000000000000000e+02 1.640776456129440930e+03
6.700000000000000000e+02 1.848162018046055664e+03
6.710000000000000000e+02 2.092305417963083528e+03
6.720000000000000000e+02 2.348906236050621374e+03
6.730000000000000000e+02 2.609642965774742152e+03
6.740000000000000000e+02 2.896972418792787266e+03
6.750000000000000000e+02 3.253455664592402172e+03
6.760000000000000000e+02 3.617472596764150694e+03
6.770000000000000000e+02 3.886197925741550080e+03
6.780000000000000000e+02 4.192732778884050276e+03
6.790000000000000000e+02 4.515044968263846386e+03
6.800000000000000000e+02 4.779455696535988864e+03
6.810000000000000000e+02 5.100611681808757567e+03
6.820000000000000000e+02 5.264354602157231056e+03
6.830000000000000000e+02 5.403554947324761997e+03
6.840000000000000000e+02 5.369623891101427944e+03
6.850000000000000000e+02 5.160108325243722902e+03
6.860000000000000000e+02 4.893667318954788243e+03
6.870000000000000000e+02 4.638666897116776454e+03
6.880000000000000000e+02 4.374675313627876676e+03
6.890000000000000000e+02 4.265300383243466968e+03
6.900000000000000000e+02 4.206148905413813736e+03
6.910000000000000000e+02 4.236579174445136232e+03
6.920000000000000000e+02 4.435689050601413328e+03
6.930000000000000000e+02 4.739461985065338013e+03
6.940000000000000000e+02 5.133726528935904753e+03
6.950000000000000000e+02 5.701095215722887588e+03
6.960000000000000000e+02 6.231313476664594418e+03
6.970000000000000000e+02 6.839004060983193995e+03
6.980000000000000000e+02 7.626534944617306792e+03
6.990000000000000000e+02 8.436227263638249497e+03
7.000000000000000000e+02 9.215853039203477238e+03
7.010000000000000000e+02 1.000429173200581317e+04
7.020000000000000000e+02 1.078557100186683056e+04
7.030000000000000000e+02 1.161913270690726858e+04
7.040000000000000000e+02 1.241100919311346297e+04
7.050000000000000000e+02 1.290607812072183879e+04
7.060000000000000000e+02 1.302766495332918385e+04
7.070000000000000000e+02 1.271315123210952333e+04
7.080000000000000000e+02 1.219512516490355483e+04
7.090000000000000000e+02 1.129443848403154516e+04
7.100000000000000000e+02 1.008700232648828751e+04
7.110000000000000000e+02 8.920933713130041724e+03
7.120000000000000000e+02 7.786894946910016188e+03
7.130000000000000000e+02 6.646175062642615558e+03
7.140000000000000000e+02 5.654315843808355567e+03
7.150000000000000000e+02 4.869002062007476525e+03
7.160000000000000000e+02 4.202788181705049283e+03
7.170000000000000000e+02 3.596811046255976180e+03
7.180000000000000000e+02 3.125210179178770886e+03
7.190000000000000000e+02 2.648223111802538824e+03
7.200000000000000000e+02 2.349242925326702334e+03
7.210000000000000000e+02 2.094290501659065740e+03
7.220000000000000000e+02 1.804014858950429925e+03
7.230000000000000000e+02 1.516019083177768152e+03
7.240000000000000000e+02 1.298164046670814059e+03
7.250000000000000000e+02 1.174857154324828116e+03
7.260000000000000000e+02 1.040145325658576439e+03
7.270000000000000000e+02 9.583113624144377809e+02
7.280000000000000000e+02 8.645939845675133029e+02
7.290000000000000000e+02 7.383751225264439881e+02
7.300000000000000000e+02 6.638852002489120423e+02
7.310000000000000000e+02 6.400061994399517289e+02
7.320000000000000000e+02 5.117386296204167593e+02
7.330000000000000000e+02 4.401611191661490352e+02
7.340000000000000000e+02 4.085260286247677755e+02
7.350000000000000000e+02 3.837247008710086789e+02
7.360000000000000000e+02 3.397077133789695154e+02
7.370000000000000000e+02 2.390429822858329203e+02
7.380000000000000000e+02 2.600997926793857005e+02
7.390000000000000000e+02 2.644946911240155032e+02
7.400000000000000000e+02 2.216506766023659054e+02
7.410000000000000000e+02 1.759884214270892642e+02
7.420000000000000000e+02 1.440137962671102230e+02
7.430000000000000000e+02 1.078609850031118214e+02
7.440000000000000000e+02 1.103906724953326375e+02
7.450000000000000000e+02 1.140764085856491477e+02
7.460000000000000000e+02 9.255484520846385976e+01
7.470000000000000000e+02 5.126593668741121235e+01
7.480000000000000000e+02 4.413805125259175099e+01
7.490000000000000000e+02 7.806055480398457291e+01
7.500000000000000000e+02 7.126729912050630666e+00
7.510000000000000000e+02 3.136636439120517394e+01
7.520000000000000000e+02 5.961300729309169988e+00
7.530000000000000000e+02 1.441807966832571353e+01
7.540000000000000000e+02 4.308799194150557810e+01
7.550000000000000000e+02 2.286660479775952126e+01
7.560000000000000000e+02 1.921964314250173089e+01
7.570000000000000000e+02 4.511130722256709191e+01
7.580000000000000000e+02 5.506230845052917999e+01
7.590000000000000000e+02 8.363408623314829526e+01
7.600000000000000000e+02 6.076539307820188185e+01
7.610000000000000000e+02 3.436900486620957906e+01
7.620000000000000000e+02 6.107912729158464060e+01
7.630000000000000000e+02 1.200963156813951294e+01
7.640000000000000000e+02 1.146772526695607297e+01
7.650000000000000000e+02 2.943179193902935253e+01
7.660000000000000000e+02 2.599629234391215604e+01
7.670000000000000000e+02 2.000550101431235817e+01
7.680000000000000000e+02 1.199099941518042201e+01
7.690000000000000000e+02 4.864595844015801163e+01
7.700000000000000000e+02 6.289036476249746954e+01
7.710000000000000000e+02 6.703778375155565072e+01
7.720000000000000000e+02 1.160898909769779550e+02
7.730000000000000000e+02 1.690305283965994363e+02
7.740000000000000000e+02 2.214912652841113072e+02
7.750000000000000000e+02 2.832165084629772878e+02
7.760000000000000000e+02 3.183546337274455595e+02
7.770000000000000000e+02 3.924979324206575484e+02
7.780000000000000000e+02 4.397886646753764808e+02
7.790000000000000000e+02 5.340427936527645443e+02
7.800000000000000000e+02 6.082714766023643733e+02
7.810000000000000000e+02 6.205079136901057382e+02
7.820000000000000000e+02 6.367841764364233086e+02
7.830000000000000000e+02 6.892599248496164819e+02
7.840000000000000000e+02 7.152943496162622523e+02
7.850000000000000000e+02 7.653539143746112359e+02
7.860000000000000000e+02 7.420523965774717681e+02
7.870000000000000000e+02 7.194011352831367958e+02
7.880000000000000000e+02 7.786511403235859916e+02
7.890000000000000000e+02 8.533025519186898009e+02
7.900000000000000000e+02 8.623247311761045921e+02
7.910000000000000000e+02 8.643631726669428872e+02
7.920000000000000000e+02 8.436826634723075813e+02
7.930000000000000000e+02 8.311864034640117325e+02
7.940000000000000000e+02 8.197792999585224152e+02
7.950000000000000000e+02 8.176171359676402517e+02
7.960000000000000000e+02 8.775752000622265996e+02
7.970000000000000000e+02 8.990794117378688952e+02
7.980000000000000000e+02 9.428727410495747563e+02
7.990000000000000000e+02 9.430522244555072575e+02
8.000000000000000000e+02 1.026555135503942893e+03
8.010000000000000000e+02 1.178424359883844090e+03
8.020000000000000000e+02 1.285047922422736065e+03
8.030000000000000000e+02 1.412556069902513855e+03
8.040000000000000000e+02 1.530357424393282599e+03
8.050000000000000000e+02 1.652369551130473383e+03
8.060000000000000000e+02 1.851907472930934773e+03
8.070000000000000000e+02 2.111094542626017301e+03
8.080000000000000000e+02 2.372022714374613770e+03
8.090000000000000000e+02 2.601938668326067273e+03
8.100000000000000000e+02 2.825380688653810466e+03
8.110000000000000000e+02 3.089789154324831088e+03
8.120000000000000000e+02 3.402462961626216384e+03
8.130000000000000000e+02 3.743478634723083815e+03
8.140000000000000000e+02 4.107753457581416114e+03
8.150000000000000000e+02 4.474814835096458410e+03
8.160000000000000000e+02 4.819046701306786417e+03
8.170000000000000000e+02 5.147605506636251448e+03
8.180000000000000000e+02 5.486072065961424414e+03
8.190000000000000000e+02 5.847361048537649367e+03
8.200000000000000000e+02 6.208647835338035293e+03
8.210000000000000000e+02 6.429762219249118971e+03
8.220000000000000000e+02 6.566152716863721253e+03
8.230000000000000000e+02 6.781217352136043701e+03
8.240000000000000000e+02 6.751712699025098118e+03
8.250000000000000000e+02 6.637162756896909741e+03
8.260000000000000000e+02 6.370179036499375798e+03
8.270000000000000000e+02 6.095872212818916523e+03
8.280000000000000000e+02 5.660098926363828468e+03
8.290000000000000000e+02 5.061575467026124898e+03
8.300000000000000000e+02 4.578928670400331612e+03
8.310000000000000000e+02 4.066744441194769934e+03
8.320000000000000000e+02 3.640894509023022238e+03
8.330000000000000000e+02 3.209351771416720567e+03
8.340000000000000000e+02 2.811314698610251980e+03
8.350000000000000000e+02 2.507532557975523559e+03
8.360000000000000000e+02 2.256390438083387835e+03
8.370000000000000000e+02 1.988263765608798849e+03
8.380000000000000000e+02 1.802315462559635307e+03
8.390000000000000000e+02 1.613381035469821882e+03
8.400000000000000000e+02 1.470550342252647624e+03
8.410000000000000000e+02 1.337466268823896371e+03
8.420000000000000000e+02 1.166983315079862223e+03
8.430000000000000000e+02 9.952271607631710140e+02
8.440000000000000000e+02 9.032098494918066081e+02
8.450000000000000000e+02 8.383618347853141586e+02
8.460000000000000000e+02 7.318346093322298884e+02
8.470000000000000000e+02 6.199040470026978937e+02
8.480000000000000000e+02 5.585474170296611192e+02
8.490000000000000000e+02 4.806006252592314922e+02
8.500000000000000000e+02 3.824976184816438831e+02
8.510000000000000000e+02 3.489202164073847712e+02
8.520000000000000000e+02 3.172909897760279705e+02
8.530000000000000000e+02 1.808568771831600088e+02
8.540000000000000000e+02 1.752392039203472507e+02
8.550000000000000000e+02 1.779666576939033575e+02
8.560000000000000000e+02 1.717867354283343673e+02
8.570000000000000000e+02 1.904985622277525579e+02
8.580000000000000000e+02 1.971323963700479851e+02
8.590000000000000000e+02 1.380120471686372525e+02
8.600000000000000000e+02 1.404234831570213942e+02
8.610000000000000000e+02 1.181657953329179946e+02
8.620000000000000000e+02 9.916620555901248224e+01
8.630000000000000000e+02 9.413899286247671228e+01
8.640000000000000000e+02 7.096647388923599920e+01
8.650000000000000000e+02 3.582078610869071866e+01
8.660000000000000000e+02 4.904346754200464176e+01
8.670000000000000000e+02 7.945356143123755999e+01
8.680000000000000000e+02 5.936287543248396048e+01
8.690000000000000000e+02 9.245444605475722710e+01
8.700000000000000000e+02 8.470399800871297202e+01
8.710000000000000000e+02 8.281098069902301972e+01
8.720000000000000000e+02 1.344193537121517181e+02
8.730000000000000000e+02 1.592895040448037776e+02
8.740000000000000000e+02 1.720490269238747487e+02
8.750000000000000000e+02 1.631598317295727725e+02
8.760000000000000000e+02 1.994824267579343484e+02
8.770000000000000000e+02 1.590528917237078304e+02
8.780000000000000000e+02 1.244555091248449656e+02
8.790000000000000000e+02 1.230862768927594999e+02
8.800000000000000000e+02 1.000818795831598607e+02
8.810000000000000000e+02 1.506754949802928536e+02
8.820000000000000000e+02 1.195465133139788350e+02
8.830000000000000000e+02 7.805126551960292147e+01
8.840000000000000000e+02 5.112181615432537285e+01
8.850000000000000000e+02 4.170143666044383934e+01
8.860000000000000000e+02 6.512550989213778507e+01
8.870000000000000000e+02 8.636617726197974321e+01
8.880000000000000000e+02 4.118560263223388063e+01
8.890000000000000000e+02 3.629782340178375932e+01
8.900000000000000000e+02 8.455491830947970300e+00
8.910000000000000000e+02 8.648524254511197995e+00
8.920000000000000000e+02 5.953448554449405350e+00
8.930000000000000000e+02 3.441099832607475406e+01
8.940000000000000000e+02 5.968991001659407658e+01
8.950000000000000000e+02 3.808803777846800642e+01
8.960000000000000000e+02 1.511813066583636989e+01
8.970000000000000000e+02 3.289836282514144017e+01
8.980000000000000000e+02 1.668752868699321112e+01
8.990000000000000000e+02 1.134937408046530827e+01
9.000000000000000000e+02 2.940680656709849128e+00
9.010000000000000000e+02 1.407412799004357851e+01
9.020000000000000000e+02 1.168794392119392178e+01
9.030000000000000000e+02 6.229915627463181949e+01
9.040000000000000000e+02 8.013825846297450539e+01
9.050000000000000000e+02 3.692300128577284823e+01
9.060000000000000000e+02 1.643064758556296212e+01
9.070000000000000000e+02 2.271664835262512483e+01
9.080000000000000000e+02 2.539751887805731556e+01
9.090000000000000000e+02 2.346614166770213394e+00
9.100000000000000000e+02 1.165629556316233462e+01
9.110000000000000000e+02 3.146283149346738739e+01
9.120000000000000000e+02 2.581762798796822356e+00
9.130000000000000000e+02 1.165031515453243216e+01
9.140000000000000000e+02 1.256829271727778341e+01
9.150000000000000000e+02 1.233038355756151461e+01
9.160000000000000000e+02 1.744922878655744114e+01
9.170000000000000000e+02 2.805241434764594644e+01
9.180000000000000000e+02 1.548794322567916204e+01
9.190000000000000000e+02 2.697481675171114546e+01
9.200000000000000000e+02 7.174663026135699795e+01
9.210000000000000000e+02 1.937640104957374021e+01
9.220000000000000000e+02 4.606010533499375015e+01
9.230000000000000000e+02 1.093445624725181489e+02
9.240000000000000000e+02 1.109953845301790096e+02
9.250000000000000000e+02 9.112136409581228236e+01
9.260000000000000000e+02 1.519043745073660432e+02
9.270000000000000000e+02 2.015744918896496642e+02
9.280000000000000000e+02 1.872152406055579092e+02
9.290000000000000000e+02 2.158608385812061385e+02
9.300000000000000000e+02 1.830668900435578053e+02
9.310000000000000000e+02 1.876530780588987568e+02
9.320000000000000000e+02 2.556910243103083644e+02
9.330000000000000000e+02 3.002690541381451226e+02
9.340000000000000000e+02 3.318116427623401137e+02
9.350000000000000000e+02 3.626620906450947359e+02
9.360000000000000000e+02 4.509314864758355839e+02
9.370000000000000000e+02 4.764801430823483201e+02
9.380000000000000000e+02 4.846875955818303510e+02
9.390000000000000000e+02 5.539061054138159079e+02
9.400000000000000000e+02 6.843126561916653827e+02
9.410000000000000000e+02 8.387928432275488149e+02
9.420000000000000000e+02 1.004093402924705515e+03
9.430000000000000000e+02 1.170102382078410983e+03
9.440000000000000000e+02 1.362199499688864080e+03
9.450000000000000000e+02 1.649199526239370471e+03
9.460000000000000000e+02 1.922817014934656527e+03
9.470000000000000000e+02 2.215086696328565267e+03
9.480000000000000000e+02 2.537139272972412073e+03
9.490000000000000000e+02 2.844855317568969895e+03
9.500000000000000000e+02 3.169454130056005397e+03
9.510000000000000000e+02 3.507598620074656992e+03
9.520000000000000000e+02 3.752151655880524686e+03
9.530000000000000000e+02 3.925815072599045834e+03
9.540000000000000000e+02 4.007730015968477801e+03
9.550000000000000000e+02 4.027953593445343358e+03
9.560000000000000000e+02 3.945403628500311697e+03
9.570000000000000000e+02 3.711993125673994200e+03
9.580000000000000000e+02 3.501613155776809435e+03
9.590000000000000000e+02 3.408992016594068446e+03
9.600000000000000000e+02 3.227181080257154463e+03
9.610000000000000000e+02 3.114379881767268216e+03
9.620000000000000000e+02 3.063075271727857398e+03
9.630000000000000000e+02 3.058614586893404976e+03
9.640000000000000000e+02 3.094380004148516491e+03
9.650000000000000000e+02 3.094136307405103253e+03
9.660000000000000000e+02 2.995211891101431320e+03
9.670000000000000000e+02 3.051127647790914580e+03
9.680000000000000000e+02 3.048955321717485731e+03
9.690000000000000000e+02 3.060130488487865478e+03
9.700000000000000000e+02 3.129123062227752143e+03
9.710000000000000000e+02 3.201141170918895114e+03
9.720000000000000000e+02 3.227712081725783264e+03
9.730000000000000000e+02 3.242705085044595762e+03
9.740000000000000000e+02 3.297909257622898167e+03
9.750000000000000000e+02 3.373917499688860971e+03
9.760000000000000000e+02 3.395738733250362657e+03
9.770000000000000000e+02 3.453248280232315210e+03
9.780000000000000000e+02 3.460332027795063368e+03
9.790000000000000000e+02 3.445785945239577359e+03
9.800000000000000000e+02 3.413097549564496603e+03
9.810000000000000000e+02 3.343428706699854047e+03
9.820000000000000000e+02 3.202837346608584994e+03
9.830000000000000000e+02 2.955616896515974531e+03
9.840000000000000000e+02 2.742584455507161692e+03
9.850000000000000000e+02 2.428526371084826678e+03
9.860000000000000000e+02 2.113559096640406096e+03
9.870000000000000000e+02 1.761429745488498156e+03
9.880000000000000000e+02 1.448827482265100116e+03
9.890000000000000000e+02 1.217904600373294443e+03
9.900000000000000000e+02 1.028681306990256417e+03
9.910000000000000000e+02 8.727838130263488665e+02
9.920000000000000000e+02 7.334918419829929235e+02
9.930000000000000000e+02 6.331748202862480639e+02
9.940000000000000000e+02 6.378586728894418911e+02
9.950000000000000000e+02 6.012682937149965028e+02
9.960000000000000000e+02 5.201330753370666571e+02
9.970000000000000000e+02 4.999384032980711368e+02
9.980000000000000000e+02 5.577546861232126503e+02
9.990000000000000000e+02 6.214302102260959373e+02
1.000000000000000000e+03 6.725713044776119887e+02
1.001000000000000000e+03 6.894631315352683032e+02
1.002000000000000000e+03 8.744002074688798984e+02
1.003000000000000000e+03 9.407609004149372822e+02
1.004000000000000000e+03 1.035930644398344612e+03
1.005000000000000000e+03 1.133375564315351312e+03
1.006000000000000000e+03 1.234077022821580613e+03
1.007000000000000000e+03 1.383018663900413230e+03
1.008000000000000000e+03 1.504025788381736902e+03
1.009000000000000000e+03 1.626686551867221624e+03
1.010000000000000000e+03 1.695367423236513105e+03
1.011000000000000000e+03 1.702026979253111449e+03
1.012000000000000000e+03 1.626742520746888658e+03
1.013000000000000000e+03 1.542077966804980406e+03
1.014000000000000000e+03 1.403677006224066190e+03
1.015000000000000000e+03 1.264174118257263672e+03
1.016000000000000000e+03 1.182332689440990407e+03
1.017000000000000000e+03 1.014983796680501655e+03
1.018000000000000000e+03 8.832738307053901963e+02
1.019000000000000000e+03 7.756497792531140476e+02
1.020000000000000000e+03 6.206184485477240287e+02
1.021000000000000000e+03 5.116099082987539646e+02
1.022000000000000000e+03 4.426225020746915106e+02
1.023000000000000000e+03 3.229015236514479739e+02
1.024000000000000000e+03 2.222854385892114522e+02
1.025000000000000000e+03 2.312711659751020932e+02
1.026000000000000000e+03 1.681952522821596574e+02
1.027000000000000000e+03 1.020039964730308526e+02
1.028000000000000000e+03 1.644079888198773745e+02
1.029000000000000000e+03 8.120798271783101541e+01
1.030000000000000000e+03 1.052187025933532141e+02
1.031000000000000000e+03 1.460192240663898815e+02
1.032000000000000000e+03 1.446136460580916605e+02
1.033000000000000000e+03 1.440865522821588911e+02
1.034000000000000000e+03 1.419072294605799698e+02
1.035000000000000000e+03 1.723912265560175285e+02
1.036000000000000000e+03 2.067108848861284116e+02
1.037000000000000000e+03 1.947427651452289012e+02
1.038000000000000000e+03 2.061364499999999964e+02
1.039000000000000000e+03 2.173484022821577071e+02
1.040000000000000000e+03 1.980030655601670446e+02
1.041000000000000000e+03 2.040795585062231225e+02
1.042000000000000000e+03 2.294721058091286920e+02
1.043000000000000000e+03 1.936092427385838164e+02
1.044000000000000000e+03 1.340213858921192696e+02
1.045000000000000000e+03 1.676831163900409365e+02
1.046000000000000000e+03 1.112219561203259559e+02
1.047000000000000000e+03 3.735887066390211686e+01
1.048000000000000000e+03 7.181310788381567534e+01
1.049000000000000000e+03 3.582535368464181857e+01
1.050000000000000000e+03 2.319396255186936529e+01
1.051000000000000000e+03 6.163864377593571220e+01
1.052000000000000000e+03 2.256468190871356683e+01
1.053000000000000000e+03 1.951801207039363106e+01
1.054000000000000000e+03 2.199000161825726352e+01
1.055000000000000000e+03 2.101760512448154827e+01
1.056000000000000000e+03 3.300089119917289793e+01
1.057000000000000000e+03 2.488458699793263307e+01
1.058000000000000000e+03 3.963300962655448245e+01
1.059000000000000000e+03 3.054161299584943734e+01
1.060000000000000000e+03 6.467310311206839302e+00
1.061000000000000000e+03 1.866601334024527148e+01
1.062000000000000000e+03 6.116237344398346920e+01
1.063000000000000000e+03 1.824581410788395885e+01
1.064000000000000000e+03 1.641712523858990735e+01
1.065000000000000000e+03 8.730132608694628260e+00
1.066000000000000000e+03 7.308150128630989784e+00
1.067000000000000000e+03 1.076958174274067304e+01
1.068000000000000000e+03 1.348288717842270401e+01
1.069000000000000000e+03 6.137555282157628511e+01
1.070000000000000000e+03 8.353856060165990982e+01
1.071000000000000000e+03 7.095288323651520557e+01
1.072000000000000000e+03 7.351541338174274642e+01
1.073000000000000000e+03 7.541009316770228565e+01
1.074000000000000000e+03 9.344325145228377494e+01
1.075000000000000000e+03 1.122657854771770332e+02
1.076000000000000000e+03 1.542164605809130364e+02
1.077000000000000000e+03 1.369660854771738627e+02
1.078000000000000000e+03 1.035856168049789829e+02
1.079000000000000000e+03 1.092465842323650804e+02
1.080000000000000000e+03 1.091491423236512617e+02
1.081000000000000000e+03 1.073514746887970261e+02
1.082000000000000000e+03 1.114476701863356567e+02
1.083000000000000000e+03 8.867167879667994157e+01
1.084000000000000000e+03 7.531868879667949557e+01
1.085000000000000000e+03 4.421503473029360975e+01
1.086000000000000000e+03 5.173987943983418880e+00
1.087000000000000000e+03 2.890215010373799487e+01
1.088000000000000000e+03 4.684384091286009522e+01
1.089000000000000000e+03 2.720592595435526562e+01
1.090000000000000000e+03 3.609332182572453007e+01
1.091000000000000000e+03 1.014996618257183902e+00
1.092000000000000000e+03 5.776742929461859077e+00
1.093000000000000000e+03 3.885120066390009441e+01
1.094000000000000000e+03 1.470115320910990064e+01
1.095000000000000000e+03 5.187129246888877887e+00
1.096000000000000000e+03 1.339197312240621152e+01
1.097000000000000000e+03 1.191153001452305027e+01
1.098000000000000000e+03 1.140696906831912827e+01
1.099000000000000000e+03 2.194908551867311886e+01
1.100000000000000000e+03 9.947622033195059998e+00
1.101000000000000000e+03 9.702084348547028725e+00
1.102000000000000000e+03 2.722479447204771219e+01
1.103000000000000000e+03 2.953102854771842800e+01
1.104000000000000000e+03 3.057150657676571370e+01
1.105000000000000000e+03 3.567620802904576749e+01
1.106000000000000000e+03 1.078974108506198171e+01
1.107000000000000000e+03 3.420220132780126221e+01
1.108000000000000000e+03 4.045966477178355092e+01
1.109000000000000000e+03 3.881568601659667195e+01
1.110000000000000000e+03 3.603234838174326882e+01
1.111000000000000000e+03 2.062773377592639790e+00
1.112000000000000000e+03 3.653157016597110385e+01
1.113000000000000000e+03 3.103845271784309290e+01
1.114000000000000000e+03 1.833459850931701141e+01
1.115000000000000000e+03 6.142243709543791397e+01
1.116000000000000000e+03 8.703544663900466105e+01
1.117000000000000000e+03 5.030872215767706024e+01
1.118000000000000000e+03 1.469943676348553119e+01
1.119000000000000000e+03 3.275144639003776348e+01
1.120000000000000000e+03 6.670753807053853279e+01
1.121000000000000000e+03 6.862636713692876356e+01
1.122000000000000000e+03 3.017002526970686205e+01
1.123000000000000000e+03 3.320952577639641845e+01
1.124000000000000000e+03 8.201358522821597319e+01
1.125000000000000000e+03 1.060064481327808608e+02
1.126000000000000000e+03 7.131954929460947312e+01
1.127000000000000000e+03 6.671092778008245716e+01
1.128000000000000000e+03 8.320906618257230036e+01
1.129000000000000000e+03 5.907057112032937596e+01
1.130000000000000000e+03 2.630805201244750435e+01
1.131000000000000000e+03 2.614911879917162452e+01
1.132000000000000000e+03 1.186254747303083512e+01
1.133000000000000000e+03 9.787782962655045083e+01
1.134000000000000000e+03 8.653326871369361584e+01
1.135000000000000000e+03 1.024346407468893290e+02
1.136000000000000000e+03 1.879070890041439270e+02
1.137000000000000000e+03 1.486047858921224645e+02
1.138000000000000000e+03 7.124328051867169620e+01
1.139000000000000000e+03 8.525787365145534125e+01
1.140000000000000000e+03 1.134554152697130860e+02
1.141000000000000000e+03 8.546871124481261006e+01
1.142000000000000000e+03 1.370480917012466193e+02
1.143000000000000000e+03 1.569438536231875503e+02
1.144000000000000000e+03 1.199064018672215610e+02
1.145000000000000000e+03 7.956080902489570406e+01
1.146000000000000000e+03 9.691028143153805274e+01
1.147000000000000000e+03 1.099318356846475666e+02
1.148000000000000000e+03 8.451638867219904228e+01
1.149000000000000000e+03 7.354814311203404031e+01
1.150000000000000000e+03 8.791565120331917171e+01
1.151000000000000000e+03 1.050095601659736815e+02
1.152000000000000000e+03 1.429524304347834800e+02
1.153000000000000000e+03 1.206560130705356073e+02
1.154000000000000000e+03 8.474532964730309459e+01
1.155000000000000000e+03 8.957223767634850731e+01
1.156000000000000000e+03 8.759428966804770766e+01
1.157000000000000000e+03 4.388737746888121194e+01
1.158000000000000000e+03 1.017452936099554393e+02
1.159000000000000000e+03 1.193457053941889114e+02
1.160000000000000000e+03 6.667213869565296136e+01
1.161000000000000000e+03 5.588246983402402179e+01
1.162000000000000000e+03 7.085143854771793315e+01
1.163000000000000000e+03 6.164748087136727861e+01
1.164000000000000000e+03 3.564541616182619066e+01
1.165000000000000000e+03 1.006540700829869479e+02
1.166000000000000000e+03 6.015013813277762011e+01
1.167000000000000000e+03 7.407353821576990072e+01
1.168000000000000000e+03 9.338269202898518984e+01
1.169000000000000000e+03 8.929722267634834054e+01
1.170000000000000000e+03 8.598058975103742796e+01
1.171000000000000000e+03 8.162945927385995049e+01
1.172000000000000000e+03 5.547689068323029460e+01
1.173000000000000000e+03 1.192427320331652574e+01
1.174000000000000000e+03 1.367886278008305823e+01
1.175000000000000000e+03 1.509532990456263057e+01
1.176000000000000000e+03 4.178916838174282589e+01
1.177000000000000000e+03 5.944970657672200787e+00
1.178000000000000000e+03 1.231705910788395286e+01
1.179000000000000000e+03 7.610037190871291557e+01
1.180000000000000000e+03 7.976781705394087396e+01
1.181000000000000000e+03 9.588497697095110084e+01
1.182000000000000000e+03 6.769277286307450936e+01
1.183000000000000000e+03 5.368220564315482335e+01
1.184000000000000000e+03 5.961357713692051163e+01
1.185000000000000000e+03 4.835360095435743233e+01
1.186000000000000000e+03 5.368065858921217881e+01
1.187000000000000000e+03 4.794974983402930491e+01
1.188000000000000000e+03 6.583482402489616447e+01
1.189000000000000000e+03 6.670152900621128822e+01
1.190000000000000000e+03 4.295396443983294432e+01
1.191000000000000000e+03 6.484988448133179872e+01
1.192000000000000000e+03 3.621843663900810384e+01
1.193000000000000000e+03 2.819530999999999921e+01
1.194000000000000000e+03 6.760935149377843345e+01
1.195000000000000000e+03 5.591759914938477749e+01
1.196000000000000000e+03 2.925337775933356710e+01
1.197000000000000000e+03 9.159761958591943198e+01
1.198000000000000000e+03 4.369430149377544836e+01
1.199000000000000000e+03 5.195945141078732377e+01
1.200000000000000000e+03 7.252543398340255010e+01
1.201000000000000000e+03 5.284692855072289319e+01
1.202000000000000000e+03 5.697711114107779196e+01
1.203000000000000000e+03 5.527619877593364350e+01
1.204000000000000000e+03 1.051231211825772220e+02
1.205000000000000000e+03 1.092507473029083656e+02
1.206000000000000000e+03 7.322750215767709392e+01
1.207000000000000000e+03 6.656794402489636298e+01
1.208000000000000000e+03 7.266095058091393355e+01
1.209000000000000000e+03 7.675689535269913222e+01
1.210000000000000000e+03 6.218873294605829471e+01
1.211000000000000000e+03 8.436172427385717754e+01
1.212000000000000000e+03 4.610776383817641744e+01
1.213000000000000000e+03 6.944708659750862978e+01
1.214000000000000000e+03 1.194007800829892574e+02
1.215000000000000000e+03 1.033766741078856768e+02
1.216000000000000000e+03 4.977063489626871728e+01
1.217000000000000000e+03 6.376153539419080118e+01
1.218000000000000000e+03 6.181986265559757499e+01
1.219000000000000000e+03 4.397299850622225392e+01
1.220000000000000000e+03 8.137210506224063522e+01
1.221000000000000000e+03 7.413684705394058483e+01
1.222000000000000000e+03 4.282147238095096498e+01
1.223000000000000000e+03 3.980694539418815481e+01
1.224000000000000000e+03 9.617482858921171385e+01
1.225000000000000000e+03 6.588118730290071312e+01
1.226000000000000000e+03 1.530182900621255904e+01
1.227000000000000000e+03 5.091412265560113326e+01
1.228000000000000000e+03 6.083893246887848960e+01
1.229000000000000000e+03 5.499572902489597936e+01
1.230000000000000000e+03 1.662987055072755638e+01
1.231000000000000000e+03 1.495113141078892838e+01
1.232000000000000000e+03 5.470914078838284667e+01
1.233000000000000000e+03 5.596740211618175209e+01
1.234000000000000000e+03 6.848759322981467790e+01
1.235000000000000000e+03 2.369683609958673642e+01
1.236000000000000000e+03 4.875031450207801953e+01
1.237000000000000000e+03 1.608996172199084640e+01
1.238000000000000000e+03 8.059828590062225828e+01
1.239000000000000000e+03 6.883780871369248189e+01
1.240000000000000000e+03 3.923388721991818784e+01
1.241000000000000000e+03 3.277441062240664138e+01
1.242000000000000000e+03 1.061687341614657676e+01
1.243000000000000000e+03 2.725661380704716663e+01
1.244000000000000000e+03 5.595686265560222949e+01
1.245000000000000000e+03 3.441256099585068284e+01
1.246000000000000000e+03 4.280965497925303254e+01
1.247000000000000000e+03 3.549034004149186217e+01
1.248000000000000000e+03 6.377779033194968861e+01
1.249000000000000000e+03 2.427450045643138665e+01
1.250000000000000000e+03 3.433695547717683638e+01
1.251000000000000000e+03 4.789738319502078667e+01
1.252000000000000000e+03 3.289913802904517581e+01
1.253000000000000000e+03 6.233843232365180143e+01
1.254000000000000000e+03 4.201185454357160154e+01
1.255000000000000000e+03 1.872661655601678277e+01
1.256000000000000000e+03 4.439845908714040235e+01
1.257000000000000000e+03 5.477718365145392454e+01
1.258000000000000000e+03 3.793348497925323670e+01
1.259000000000000000e+03 2.904534267080637377e+01
1.260000000000000000e+03 2.561499456431316091e+01
1.261000000000000000e+03 7.369523475103991927e+01
1.262000000000000000e+03 1.597312232572576107e+01
1.263000000000000000e+03 1.420273621118151830e+01
1.264000000000000000e+03 5.108090672199170967e+01
1.265000000000000000e+03 2.675749327800837563e+01
1.266000000000000000e+03 3.130378377593504524e+01
1.267000000000000000e+03 6.437790819875827708e+01
1.268000000000000000e+03 3.621863962655768887e+01
1.269000000000000000e+03 4.396948852697319410e+01
1.270000000000000000e+03 5.712044541493332872e+01
1.271000000000000000e+03 3.086941766045598357e+01
1.272000000000000000e+03 3.569869307053954799e+01
1.273000000000000000e+03 4.015130497925289887e+01
1.274000000000000000e+03 2.051745033195381396e+01
1.275000000000000000e+03 5.591245844719029634e+00
1.276000000000000000e+03 5.352535844398202869e+01
1.277000000000000000e+03 1.964860591286400293e+01
1.278000000000000000e+03 6.321777481327654158e+01
1.279000000000000000e+03 5.310232948132778574e+01
1.280000000000000000e+03 8.378869360996209537e+01
1.281000000000000000e+03 6.071547622407091183e+01
1.282000000000000000e+03 4.667765950207434855e+01
1.283000000000000000e+03 3.822520170124359140e+01
1.284000000000000000e+03 4.553620865146816854e+00
1.285000000000000000e+03 1.094498224066364855e+01
1.286000000000000000e+03 3.665449161825742408e+01
1.287000000000000000e+03 2.317525906638881850e+01
1.288000000000000000e+03 3.217500908713179797e+01
1.289000000000000000e+03 8.262408796680544754e+01
1.290000000000000000e+03 1.141393872199382109e+01
1.291000000000000000e+03 9.406369360995995521e+01
1.292000000000000000e+03 6.518135507246665838e+01
1.293000000000000000e+03 4.743000946057602363e+00
1.294000000000000000e+03 1.202603464730396894e+02
1.295000000000000000e+03 8.823261143154439878e+01
1.296000000000000000e+03 9.462363006211058192e+00
1.297000000000000000e+03 2.705127426556493120e+01
1.298000000000000000e+03 6.418542286306968947e+01
1.299000000000000000e+03 6.221566307053991096e+01
1.300000000000000000e+03 3.714621285714119381e+01
1.301000000000000000e+03 4.286609981326838792e+00
1.302000000000000000e+03 0.000000000000000000e+00
1.303000000000000000e+03 0.000000000000000000e+00
1.304000000000000000e+03 0.000000000000000000e+00
1.305000000000000000e+03 0.000000000000000000e+00
1.306000000000000000e+03 0.000000000000000000e+00
1.307000000000000000e+03 0.000000000000000000e+00
1.308000000000000000e+03 0.000000000000000000e+00
1.309000000000000000e+03 0.000000000000000000e+00
1.310000000000000000e+03 0.000000000000000000e+00
1.311000000000000000e+03 0.000000000000000000e+00
1.312000000000000000e+03 0.000000000000000000e+00
1.313000000000000000e+03 0.000000000000000000e+00
1.314000000000000000e+03 0.000000000000000000e+00
1.315000000000000000e+03 0.000000000000000000e+00
1.316000000000000000e+03 0.000000000000000000e+00
1.317000000000000000e+03 0.000000000000000000e+00
1.318000000000000000e+03 0.000000000000000000e+00
1.319000000000000000e+03 0.000000000000000000e+00
1.320000000000000000e+03 0.000000000000000000e+00
1.321000000000000000e+03 0.000000000000000000e+00
1.322000000000000000e+03 0.000000000000000000e+00
1.323000000000000000e+03 0.000000000000000000e+00
1.324000000000000000e+03 0.000000000000000000e+00
1.325000000000000000e+03 0.000000000000000000e+00
1.326000000000000000e+03 0.000000000000000000e+00
1.327000000000000000e+03 0.000000000000000000e+00
1.328000000000000000e+03 0.000000000000000000e+00
1.329000000000000000e+03 0.000000000000000000e+00
1.330000000000000000e+03 0.000000000000000000e+00
1.331000000000000000e+03 0.000000000000000000e+00
1.332000000000000000e+03 0.000000000000000000e+00
1.333000000000000000e+03 0.000000000000000000e+00
1.334000000000000000e+03 0.000000000000000000e+00
1.335000000000000000e+03 0.000000000000000000e+00
1.336000000000000000e+03 0.000000000000000000e+00
1.337000000000000000e+03 0.000000000000000000e+00
1.338000000000000000e+03 0.000000000000000000e+00
1.339000000000000000e+03 0.000000000000000000e+00
1.340000000000000000e+03 0.000000000000000000e+00
1.341000000000000000e+03 0.000000000000000000e+00
1.342000000000000000e+03 0.000000000000000000e+00
1.343000000000000000e+03 0.000000000000000000e+00
1.344000000000000000e+03 0.000000000000000000e+00
1.345000000000000000e+03 0.000000000000000000e+00
1.346000000000000000e+03 0.000000000000000000e+00
1.347000000000000000e+03 0.000000000000000000e+00
1.348000000000000000e+03 0.000000000000000000e+00
1.349000000000000000e+03 0.000000000000000000e+00
1.350000000000000000e+03 0.000000000000000000e+00
1.351000000000000000e+03 0.000000000000000000e+00
1.352000000000000000e+03 0.000000000000000000e+00
1.353000000000000000e+03 0.000000000000000000e+00
1.354000000000000000e+03 0.000000000000000000e+00
1.355000000000000000e+03 0.000000000000000000e+00
1.356000000000000000e+03 0.000000000000000000e+00
1.357000000000000000e+03 0.000000000000000000e+00
1.358000000000000000e+03 0.000000000000000000e+00
1.359000000000000000e+03 0.000000000000000000e+00
1.360000000000000000e+03 0.000000000000000000e+00
1.361000000000000000e+03 0.000000000000000000e+00
1.362000000000000000e+03 0.000000000000000000e+00
1.363000000000000000e+03 0.000000000000000000e+00
1.364000000000000000e+03 0.000000000000000000e+00
1.365000000000000000e+03 0.000000000000000000e+00
1.366000000000000000e+03 0.000000000000000000e+00
1.367000000000000000e+03 0.000000000000000000e+00
1.368000000000000000e+03 0.000000000000000000e+00
1.369000000000000000e+03 0.000000000000000000e+00
1.370000000000000000e+03 0.000000000000000000e+00
1.371000000000000000e+03 0.000000000000000000e+00
1.372000000000000000e+03 0.000000000000000000e+00
1.373000000000000000e+03 0.000000000000000000e+00
1.374000000000000000e+03 0.000000000000000000e+00
1.375000000000000000e+03 0.000000000000000000e+00
1.376000000000000000e+03 0.000000000000000000e+00
1.377000000000000000e+03 0.000000000000000000e+00
1.378000000000000000e+03 0.000000000000000000e+00
1.379000000000000000e+03 0.000000000000000000e+00
1.380000000000000000e+03 0.000000000000000000e+00
1.381000000000000000e+03 0.000000000000000000e+00
1.382000000000000000e+03 0.000000000000000000e+00
1.383000000000000000e+03 0.000000000000000000e+00
1.384000000000000000e+03 0.000000000000000000e+00
1.385000000000000000e+03 0.000000000000000000e+00
1.386000000000000000e+03 0.000000000000000000e+00
1.387000000000000000e+03 0.000000000000000000e+00
1.388000000000000000e+03 0.000000000000000000e+00
1.389000000000000000e+03 0.000000000000000000e+00
1.390000000000000000e+03 0.000000000000000000e+00
1.391000000000000000e+03 0.000000000000000000e+00
1.392000000000000000e+03 0.000000000000000000e+00
1.393000000000000000e+03 0.000000000000000000e+00
1.394000000000000000e+03 0.000000000000000000e+00
1.395000000000000000e+03 0.000000000000000000e+00
1.396000000000000000e+03 0.000000000000000000e+00
1.397000000000000000e+03 0.000000000000000000e+00
1.398000000000000000e+03 0.000000000000000000e+00
1.399000000000000000e+03 0.000000000000000000e+00
1.400000000000000000e+03 0.000000000000000000e+00
1.401000000000000000e+03 0.000000000000000000e+00
1.402000000000000000e+03 0.000000000000000000e+00
1.403000000000000000e+03 0.000000000000000000e+00
1.404000000000000000e+03 0.000000000000000000e+00
1.405000000000000000e+03 0.000000000000000000e+00
1.406000000000000000e+03 0.000000000000000000e+00
1.407000000000000000e+03 0.000000000000000000e+00
1.408000000000000000e+03 0.000000000000000000e+00
1.409000000000000000e+03 0.000000000000000000e+00
1.410000000000000000e+03 0.000000000000000000e+00
1.411000000000000000e+03 0.000000000000000000e+00
1.412000000000000000e+03 0.000000000000000000e+00
1.413000000000000000e+03 0.000000000000000000e+00
1.414000000000000000e+03 0.000000000000000000e+00
1.415000000000000000e+03 0.000000000000000000e+00
1.416000000000000000e+03 0.000000000000000000e+00
1.417000000000000000e+03 0.000000000000000000e+00
1.418000000000000000e+03 0.000000000000000000e+00
1.419000000000000000e+03 0.000000000000000000e+00
1.420000000000000000e+03 0.000000000000000000e+00
1.421000000000000000e+03 0.000000000000000000e+00
1.422000000000000000e+03 0.000000000000000000e+00
1.423000000000000000e+03 0.000000000000000000e+00
1.424000000000000000e+03 0.000000000000000000e+00
1.425000000000000000e+03 0.000000000000000000e+00
1.426000000000000000e+03 0.000000000000000000e+00
1.427000000000000000e+03 0.000000000000000000e+00
1.428000000000000000e+03 0.000000000000000000e+00
1.429000000000000000e+03 0.000000000000000000e+00
1.430000000000000000e+03 0.000000000000000000e+00
1.431000000000000000e+03 0.000000000000000000e+00
1.432000000000000000e+03 0.000000000000000000e+00
1.433000000000000000e+03 0.000000000000000000e+00
1.434000000000000000e+03 0.000000000000000000e+00
1.435000000000000000e+03 0.000000000000000000e+00
1.436000000000000000e+03 0.000000000000000000e+00
1.437000000000000000e+03 0.000000000000000000e+00
1.438000000000000000e+03 0.000000000000000000e+00
1.439000000000000000e+03 0.000000000000000000e+00
1.440000000000000000e+03 0.000000000000000000e+00
1.441000000000000000e+03 0.000000000000000000e+00
1.442000000000000000e+03 0.000000000000000000e+00
1.443000000000000000e+03 0.000000000000000000e+00
1.444000000000000000e+03 0.000000000000000000e+00
1.445000000000000000e+03 0.000000000000000000e+00
1.446000000000000000e+03 0.000000000000000000e+00
1.447000000000000000e+03 0.000000000000000000e+00
1.448000000000000000e+03 0.000000000000000000e+00
1.449000000000000000e+03 0.000000000000000000e+00
1.450000000000000000e+03 0.000000000000000000e+00
1.451000000000000000e+03 0.000000000000000000e+00
1.452000000000000000e+03 0.000000000000000000e+00
1.453000000000000000e+03 0.000000000000000000e+00
1.454000000000000000e+03 0.000000000000000000e+00
1.455000000000000000e+03 0.000000000000000000e+00
1.456000000000000000e+03 0.000000000000000000e+00
1.457000000000000000e+03 0.000000000000000000e+00
1.458000000000000000e+03 0.000000000000000000e+00
1.459000000000000000e+03 0.000000000000000000e+00
1.460000000000000000e+03 0.000000000000000000e+00
1.461000000000000000e+03 0.000000000000000000e+00
1.462000000000000000e+03 0.000000000000000000e+00
1.463000000000000000e+03 0.000000000000000000e+00
1.464000000000000000e+03 0.000000000000000000e+00
1.465000000000000000e+03 0.000000000000000000e+00
1.466000000000000000e+03 0.000000000000000000e+00
1.467000000000000000e+03 0.000000000000000000e+00
1.468000000000000000e+03 0.000000000000000000e+00
1.469000000000000000e+03 0.000000000000000000e+00
1.470000000000000000e+03 0.000000000000000000e+00
1.471000000000000000e+03 0.000000000000000000e+00
1.472000000000000000e+03 0.000000000000000000e+00
1.473000000000000000e+03 0.000000000000000000e+00
1.474000000000000000e+03 0.000000000000000000e+00
1.475000000000000000e+03 0.000000000000000000e+00
1.476000000000000000e+03 0.000000000000000000e+00
1.477000000000000000e+03 0.000000000000000000e+00
1.478000000000000000e+03 0.000000000000000000e+00
1.479000000000000000e+03 0.000000000000000000e+00
1.480000000000000000e+03 0.000000000000000000e+00
1.481000000000000000e+03 0.000000000000000000e+00
1.482000000000000000e+03 0.000000000000000000e+00
1.483000000000000000e+03 0.000000000000000000e+00
1.484000000000000000e+03 0.000000000000000000e+00
1.485000000000000000e+03 0.000000000000000000e+00
1.486000000000000000e+03 0.000000000000000000e+00
1.487000000000000000e+03 0.000000000000000000e+00
1.488000000000000000e+03 0.000000000000000000e+00
1.489000000000000000e+03 0.000000000000000000e+00
1.490000000000000000e+03 0.000000000000000000e+00
1.491000000000000000e+03 0.000000000000000000e+00
1.492000000000000000e+03 0.000000000000000000e+00
1.493000000000000000e+03 0.000000000000000000e+00
1.494000000000000000e+03 0.000000000000000000e+00
1.495000000000000000e+03 0.000000000000000000e+00
1.496000000000000000e+03 0.000000000000000000e+00
1.497000000000000000e+03 0.000000000000000000e+00
1.498000000000000000e+03 0.000000000000000000e+00
1.499000000000000000e+03 0.000000000000000000e+00
1.500000000000000000e+03 0.000000000000000000e+00
