1.010000000000000000e+02 0.000000000000000000e+00
1.020000000000000000e+02 0.000000000000000000e+00
1.030000000000000000e+02 0.000000000000000000e+00
1.040000000000000000e+02 0.000000000000000000e+00
1.050000000000000000e+02 0.000000000000000000e+00
1.060000000000000000e+02 0.000000000000000000e+00
1.070000000000000000e+02 0.000000000000000000e+00
1.080000000000000000e+02 0.000000000000000000e+00
1.090000000000000000e+02 0.000000000000000000e+00
1.100000000000000000e+02 0.000000000000000000e+00
1.110000000000000000e+02 0.000000000000000000e+00
1.120000000000000000e+02 0.000000000000000000e+00
1.130000000000000000e+02 0.000000000000000000e+00
1.140000000000000000e+02 0.000000000000000000e+00
1.150000000000000000e+02 0.000000000000000000e+00
1.160000000000000000e+02 0.000000000000000000e+00
1.170000000000000000e+02 0.000000000000000000e+00
1.180000000000000000e+02 0.000000000000000000e+00
1.190000000000000000e+02 3.302364289359053373e+01
1.200000000000000000e+02 8.088298450528936812e-01
1.210000000000000000e+02 8.862188428126928841e+01
1.220000000000000000e+02 1.155429970545529272e+02
1.230000000000000000e+02 1.331006444306162280e+02
1.240000000000000000e+02 2.513470145405521521e+02
1.250000000000000000e+02 2.525439686372121457e+02
1.260000000000000000e+02 2.938059091267369354e+02
1.270000000000000000e+02 3.635625341630367870e+02
1.280000000000000000e+02 4.215494828873673328e+02
1.290000000000000000e+02 5.865200476980510302e+02
1.300000000000000000e+02 6.080472245177350032e+02
1.310000000000000000e+02 6.720073116573304333e+02
1.320000000000000000e+02 8.511545829323931684e+02
1.330000000000000000e+02 7.511502877618745515e+02
1.340000000000000000e+02 7.060011151213441281e+02
1.350000000000000000e+02 6.325499249274172371e+02
1.360000000000000000e+02 4.717092150383732019e+02
1.370000000000000000e+02 3.575070930927187192e+02
1.380000000000000000e+02 3.664231682704272544e+02
1.390000000000000000e+02 4.126769670815181144e+02
1.400000000000000000e+02 3.716922431030918119e+02
1.410000000000000000e+02 1.300965708649644057e+02
1.420000000000000000e+02 5.910296637627117988e+00
1.430000000000000000e+02 9.237886803982444661e+00
1.440000000000000000e+02 3.483067200373412220e+01
1.450000000000000000e+02 1.179659578386307039e+01
1.460000000000000000e+02 8.644569661297913044e+00
1.470000000000000000e+02 2.177440174408963358e+01
1.480000000000000000e+02 9.100645915370309424e+00
1.490000000000000000e+02 2.430572004708593425e+01
1.500000000000000000e+02 2.425675580879347848e+01
1.510000000000000000e+02 5.321245951877205016e+01
1.520000000000000000e+02 4.767902390790293055e+01
1.530000000000000000e+02 8.380372814185014363e+01
1.540000000000000000e+02 9.089843660443925444e+01
1.550000000000000000e+02 6.662320288321926398e+01
1.560000000000000000e+02 1.013803968969088913e+02
1.570000000000000000e+02 1.430012006222786454e+02
1.580000000000000000e+02 4.149355364654574174e+01
1.590000000000000000e+02 7.938895960174268396e+01
1.600000000000000000e+02 1.622484155361956653e+02
1.610000000000000000e+02 1.965141002489112054e+02
1.620000000000000000e+02 1.658790736154323042e+02
1.630000000000000000e+02 2.159285254926368225e+02
1.640000000000000000e+02 2.210311543040862432e+02
1.650000000000000000e+02 2.030034209707528703e+02
1.660000000000000000e+02 2.253526312383320942e+02
1.670000000000000000e+02 1.806314316531834834e+02
1.680000000000000000e+02 2.131678325243726135e+02
1.690000000000000000e+02 2.626908461729931332e+02
1.700000000000000000e+02 2.721880583782660779e+02
1.710000000000000000e+02 3.273643039825765868e+02
1.720000000000000000e+02 3.368969382078406625e+02
1.730000000000000000e+02 3.164688955205309639e+02
1.740000000000000000e+02 3.105354597593856170e+02
1.750000000000000000e+02 3.548973426882389504e+02
1.760000000000000000e+02 3.307375559104103218e+02
1.770000000000000000e+02 3.408018465048744474e+02
1.780000000000000000e+02 3.788328449491806396e+02
1.790000000000000000e+02 3.522759956864368860e+02
1.800000000000000000e+02 3.115825579340382774e+02
1.810000000000000000e+02 3.401074493673513075e+02
1.820000000000000000e+02 3.838737198921386948e+02
1.830000000000000000e+02 3.759881562124037373e+02
1.840000000000000000e+02 4.363946624766651894e+02
1.850000000000000000e+02 4.729693922837585660e+02
1.860000000000000000e+02 5.031766052478736810e+02
1.870000000000000000e+02 5.445259505911634506e+02
1.880000000000000000e+02 5.395413737038574027e+02
1.890000000000000000e+02 4.726300573739883362e+02
1.900000000000000000e+02 4.932541843808338058e+02
1.910000000000000000e+02 5.679909487971794988e+02
1.920000000000000000e+02 4.982570699439943951e+02
1.930000000000000000e+02 4.517478685127564404e+02
1.940000000000000000e+02 5.389665828287016893e+02
1.950000000000000000e+02 6.260234243725374199e+02
1.960000000000000000e+02 5.430455192906032380e+02
1.970000000000000000e+02 6.348352246007057147e+02
1.980000000000000000e+02 6.045640220908521769e+02
1.990000000000000000e+02 5.201833604646338927e+02
2.000000000000000000e+02 5.037038048330226729e+02
2.010000000000000000e+02 4.503308539722043520e+02
2.020000000000000000e+02 4.167683607965151396e+02
2.030000000000000000e+02 4.059952431238332338e+02
2.040000000000000000e+02 3.823055999377726835e+02
2.050000000000000000e+02 2.929997176104536720e+02
2.060000000000000000e+02 2.866270787595935872e+02
2.070000000000000000e+02 3.135980233976353588e+02
2.080000000000000000e+02 3.221240780174202314e+02
2.090000000000000000e+02 2.847411295789266887e+02
2.100000000000000000e+02 1.687624736984020331e+02
2.110000000000000000e+02 1.234922388635421271e+02
2.120000000000000000e+02 1.345747826384566679e+02
2.130000000000000000e+02 1.231260956233154644e+02
2.140000000000000000e+02 1.581055782932337195e+01
2.150000000000000000e+02 8.215014349927449189e+01
2.160000000000000000e+02 1.368054169881768019e+02
2.170000000000000000e+02 8.295351562837049642e+01
2.180000000000000000e+02 3.631295318813473472e+01
2.190000000000000000e+02 2.996955510889664609e+00
2.200000000000000000e+02 2.754757061177928534e+01
2.210000000000000000e+02 3.813476262601123068e+01
2.220000000000000000e+02 8.834617374817828050e+00
2.230000000000000000e+02 8.118063133167409262e+01
2.240000000000000000e+02 4.388543947977588289e+01
2.250000000000000000e+02 2.498551810205343315e+01
2.260000000000000000e+02 2.612620530180471334e+01
2.270000000000000000e+02 1.354527328977416545e+01
2.280000000000000000e+02 1.108082830719759748e+01
2.290000000000000000e+02 1.523343666217327197e+01
2.300000000000000000e+02 2.678575808960809113e+01
2.310000000000000000e+02 2.641656772246387952e+00
2.320000000000000000e+02 2.749061125259246552e+01
2.330000000000000000e+02 6.490722169674420172e+00
2.340000000000000000e+02 2.302028769757305326e+01
2.350000000000000000e+02 7.250926303672237339e+00
2.360000000000000000e+02 6.646430162829305743e+01
2.370000000000000000e+02 6.133632171126314603e+01
2.380000000000000000e+02 1.860393192283752484e+01
2.390000000000000000e+02 3.420224677660280577e+01
2.400000000000000000e+02 1.286253843995051582e+01
2.410000000000000000e+02 9.220888797137476445e+00
2.420000000000000000e+02 5.483459477286834982e+01
2.430000000000000000e+02 1.249248184194146205e+02
2.440000000000000000e+02 1.414337508400745378e+02
2.450000000000000000e+02 7.285953445550683227e+01
2.460000000000000000e+02 1.198198972101223347e+02
2.470000000000000000e+02 1.786436817465254308e+02
2.480000000000000000e+02 1.778637404480399766e+02
2.490000000000000000e+02 2.375802434674411359e+02
2.500000000000000000e+02 2.439430646338933855e+02
2.510000000000000000e+02 2.378416823895457242e+02
2.520000000000000000e+02 2.428250962463707481e+02
2.530000000000000000e+02 2.683970355320478234e+02
2.540000000000000000e+02 3.701994487243312619e+02
2.550000000000000000e+02 3.835937233098301817e+02
2.560000000000000000e+02 3.689903807923664090e+02
2.570000000000000000e+02 3.997090422526442808e+02
2.580000000000000000e+02 4.092596842596432225e+02
2.590000000000000000e+02 4.536493596141877447e+02
2.600000000000000000e+02 4.719800435179424198e+02
2.610000000000000000e+02 4.943780861883041098e+02
2.620000000000000000e+02 6.151314665214688375e+02
2.630000000000000000e+02 6.352049938601950316e+02
2.640000000000000000e+02 6.526732808338524592e+02
2.650000000000000000e+02 6.813383925741551366e+02
2.660000000000000000e+02 7.082377173615435595e+02
2.670000000000000000e+02 7.411077617299313260e+02
2.680000000000000000e+02 7.797123073843609973e+02
2.690000000000000000e+02 8.242936792366739382e+02
2.700000000000000000e+02 8.071681788425657942e+02
2.710000000000000000e+02 6.761717904169274789e+02
2.720000000000000000e+02 7.753272549471103048e+02
2.730000000000000000e+02 7.518539950010385837e+02
2.740000000000000000e+02 6.714337377515045091e+02
2.750000000000000000e+02 6.829994257622898886e+02
2.760000000000000000e+02 6.674845429371498540e+02
2.770000000000000000e+02 7.427179773905822913e+02
2.780000000000000000e+02 7.555882368180864432e+02
2.790000000000000000e+02 7.179869443061609218e+02
2.800000000000000000e+02 7.785151593030492450e+02
2.810000000000000000e+02 7.305056076540124650e+02
2.820000000000000000e+02 7.170324941713342923e+02
2.830000000000000000e+02 7.737463984028217965e+02
2.840000000000000000e+02 8.154535490976979872e+02
2.850000000000000000e+02 7.365999530180441752e+02
2.860000000000000000e+02 7.426064487450746583e+02
2.870000000000000000e+02 7.569180610869115071e+02
2.880000000000000000e+02 7.592801020327727883e+02
2.890000000000000000e+02 8.114871650974714612e+02
2.900000000000000000e+02 8.622854296350069490e+02
2.910000000000000000e+02 8.904756687409249025e+02
2.920000000000000000e+02 8.971943344326904253e+02
2.930000000000000000e+02 8.962002874326004758e+02
2.940000000000000000e+02 9.107628722464216935e+02
2.950000000000000000e+02 9.529072088985682285e+02
2.960000000000000000e+02 9.580942228950643766e+02
2.970000000000000000e+02 9.165624218004562636e+02
2.980000000000000000e+02 8.785449704418170995e+02
2.990000000000000000e+02 9.107287466611369382e+02
3.000000000000000000e+02 8.984427341422937161e+02
3.010000000000000000e+02 8.897859867247459533e+02
3.020000000000000000e+02 9.076114841766902828e+02
3.030000000000000000e+02 8.773050464219040805e+02
3.040000000000000000e+02 8.904886839452402683e+02
3.050000000000000000e+02 9.816434176104511380e+02
3.060000000000000000e+02 1.070507826591993080e+03
3.070000000000000000e+02 1.093527365899192318e+03
3.080000000000000000e+02 1.166058107654012701e+03
3.090000000000000000e+02 1.172597123210952532e+03
3.100000000000000000e+02 1.181093325658576077e+03
3.110000000000000000e+02 1.243061061398049560e+03
3.120000000000000000e+02 1.333607937772245350e+03
3.130000000000000000e+02 1.414583258867453424e+03
3.140000000000000000e+02 1.495383026550508475e+03
3.150000000000000000e+02 1.591827785729101606e+03
3.160000000000000000e+02 1.702396711737867463e+03
3.170000000000000000e+02 1.791874521468576404e+03
3.180000000000000000e+02 1.926189241443684750e+03
3.190000000000000000e+02 2.032592135420987688e+03
3.200000000000000000e+02 2.102248057456960396e+03
3.210000000000000000e+02 2.184279873677662636e+03
3.220000000000000000e+02 2.363882923268352442e+03
3.230000000000000000e+02 2.423065039203484957e+03
3.240000000000000000e+02 2.446999105372330632e+03
3.250000000000000000e+02 2.502420036706760584e+03
3.260000000000000000e+02 2.540802568761666862e+03
3.270000000000000000e+02 2.649889801078611526e+03
3.280000000000000000e+02 2.650899964744919998e+03
3.290000000000000000e+02 2.651830594275046224e+03
3.300000000000000000e+02 2.761509326695705568e+03
3.310000000000000000e+02 2.775861448039825518e+03
3.320000000000000000e+02 2.683559835096453298e+03
3.330000000000000000e+02 2.559573202240200317e+03
3.340000000000000000e+02 2.488192669363202640e+03
3.350000000000000000e+02 2.510705929682638271e+03
3.360000000000000000e+02 2.478552855216759781e+03
3.370000000000000000e+02 2.426961476457165190e+03
3.380000000000000000e+02 2.312277514830945165e+03
3.390000000000000000e+02 2.145447428126943123e+03
3.400000000000000000e+02 2.021859418792784709e+03
3.410000000000000000e+02 1.926753714374608990e+03
3.420000000000000000e+02 1.833351939431651545e+03
3.430000000000000000e+02 1.731174811657334430e+03
3.440000000000000000e+02 1.609758680149350539e+03
3.450000000000000000e+02 1.433311176690165667e+03
3.460000000000000000e+02 1.229980378344743485e+03
3.470000000000000000e+02 1.161339475627462434e+03
3.480000000000000000e+02 1.146396165491498778e+03
3.490000000000000000e+02 1.013589933789670340e+03
3.500000000000000000e+02 9.707752894627672049e+02
3.510000000000000000e+02 8.921197271256736485e+02
3.520000000000000000e+02 8.111556366936315499e+02
3.530000000000000000e+02 7.301741517112629936e+02
3.540000000000000000e+02 6.045760499585217076e+02
3.550000000000000000e+02 6.507045681186489219e+02
3.560000000000000000e+02 6.633459723293921115e+02
3.570000000000000000e+02 5.732090587844879792e+02
3.580000000000000000e+02 4.544383206596143054e+02
3.590000000000000000e+02 4.666149145820365334e+02
3.600000000000000000e+02 4.198605865173209395e+02
3.610000000000000000e+02 4.277744540551739192e+02
3.620000000000000000e+02 4.562014807093964919e+02
3.630000000000000000e+02 4.251672588674551321e+02
3.640000000000000000e+02 4.036372785314254088e+02
3.650000000000000000e+02 3.499273456959149939e+02
3.660000000000000000e+02 3.018918065339141208e+02
3.670000000000000000e+02 2.863804881767267716e+02
3.680000000000000000e+02 2.909608448247252568e+02
3.690000000000000000e+02 2.092434104542619195e+02
3.700000000000000000e+02 2.022519709811243160e+02
3.710000000000000000e+02 2.346402239319784258e+02
3.720000000000000000e+02 2.435824649657737950e+02
3.730000000000000000e+02 1.853094104127767991e+02
3.740000000000000000e+02 1.365143359883839480e+02
3.750000000000000000e+02 1.068455385317293889e+02
3.760000000000000000e+02 1.150268428749231759e+02
3.770000000000000000e+02 1.243245196017416845e+02
3.780000000000000000e+02 2.992193249066865235e+01
3.790000000000000000e+02 1.479364214291664226e+01
3.800000000000000000e+02 3.103515001866862022e+01
3.810000000000000000e+02 5.100095334301096273e+01
3.820000000000000000e+02 6.870327035262394588e+01
3.830000000000000000e+02 3.175102907488168569e+01
3.840000000000000000e+02 5.583676227546128956e+01
3.850000000000000000e+02 1.015151911636586135e+02
3.860000000000000000e+02 9.868155467537975767e+01
3.870000000000000000e+02 3.351403794026129646e+01
3.880000000000000000e+02 3.507371258867454600e+01
3.890000000000000000e+02 2.240912376477930934e+01
3.900000000000000000e+02 1.335814707405154067e+01
3.910000000000000000e+02 6.076300711055834114e+01
3.920000000000000000e+02 1.110122872225679771e+02
3.930000000000000000e+02 1.458720429164078496e+02
3.940000000000000000e+02 1.003636883011812699e+02
3.950000000000000000e+02 1.581442117714182700e+02
3.960000000000000000e+02 3.048004464633861517e+02
3.970000000000000000e+02 3.398636932171746139e+02
3.980000000000000000e+02 3.248439434674409085e+02
3.990000000000000000e+02 3.440727264467944337e+02
4.000000000000000000e+02 4.081830527898750915e+02
4.010000000000000000e+02 4.650006661343834367e+02
4.020000000000000000e+02 4.100287052686169318e+02
4.030000000000000000e+02 3.788255945239579887e+02
4.040000000000000000e+02 3.582803224388222247e+02
4.050000000000000000e+02 3.638091123833228835e+02
4.060000000000000000e+02 3.997684260526859248e+02
4.070000000000000000e+02 4.266082901700540333e+02
4.080000000000000000e+02 4.232099981953950874e+02
4.090000000000000000e+02 4.228998710848371729e+02
4.100000000000000000e+02 4.253573903359601900e+02
4.110000000000000000e+02 4.159137011200990059e+02
4.120000000000000000e+02 3.713449568761657815e+02
4.130000000000000000e+02 2.665826812694473347e+02
4.140000000000000000e+02 2.652157073013918875e+02
4.150000000000000000e+02 3.205340786766232668e+02
4.160000000000000000e+02 3.340527111802522882e+02
4.170000000000000000e+02 3.758895699439945588e+02
4.180000000000000000e+02 3.269346344326900180e+02
4.190000000000000000e+02 3.242600573532457702e+02
4.200000000000000000e+02 3.603587785314247753e+02
4.210000000000000000e+02 3.585731836963287833e+02
4.220000000000000000e+02 3.291711043559427594e+02
4.230000000000000000e+02 3.468881608794853832e+02
4.240000000000000000e+02 3.654707427830775828e+02
4.250000000000000000e+02 3.480394992532663423e+02
4.260000000000000000e+02 2.946877644057249768e+02
4.270000000000000000e+02 3.257001103276650156e+02
4.280000000000000000e+02 3.661495746318195188e+02
4.290000000000000000e+02 3.546123686372115458e+02
4.300000000000000000e+02 3.213775495022812265e+02
4.310000000000000000e+02 3.234798087741130530e+02
4.320000000000000000e+02 3.053359820161789457e+02
4.330000000000000000e+02 3.190628383243465578e+02
4.340000000000000000e+02 2.885458888819762251e+02
4.350000000000000000e+02 2.382716467952701862e+02
4.360000000000000000e+02 2.430728481128162173e+02
4.370000000000000000e+02 2.491192879070731863e+02
4.380000000000000000e+02 2.048068057456968631e+02
4.390000000000000000e+02 1.755080998755445023e+02
4.400000000000000000e+02 1.461992800871192344e+02
4.410000000000000000e+02 8.162398997096649111e+01
4.420000000000000000e+02 7.508254713959772175e+01
4.430000000000000000e+02 1.151443101016387942e+02
4.440000000000000000e+02 1.055477223351300324e+02
4.450000000000000000e+02 5.226773000622193877e+01
4.460000000000000000e+02 1.257889392988966293e+01
4.470000000000000000e+02 9.563399498962851908e+00
4.480000000000000000e+02 1.279003369425425340e+01
4.490000000000000000e+02 2.157340571997597323e+01
4.500000000000000000e+02 4.432694999377850564e+01
4.510000000000000000e+02 1.149356971375201208e+00
4.520000000000000000e+02 4.298765507155776433e+00
4.530000000000000000e+02 3.033264682016168123e+01
4.540000000000000000e+02 1.936482617921657834e+01
4.550000000000000000e+02 1.810068694669118017e+01
4.560000000000000000e+02 1.401499805932492038e+01
4.570000000000000000e+02 5.841841804397394355e+01
4.580000000000000000e+02 1.167918637212192863e+02
4.590000000000000000e+02 1.058189501908325383e+02
4.600000000000000000e+02 5.105563980916797107e+01
4.610000000000000000e+02 1.909777254511512723e+01
4.620000000000000000e+02 5.702660746110738188e+01
4.630000000000000000e+02 4.714292604231451378e+01
4.640000000000000000e+02 1.594016288944178505e+01
4.650000000000000000e+02 1.109450906677735915e+01
4.660000000000000000e+02 1.988515013129985221e+01
4.670000000000000000e+02 4.087782037958987047e+01
4.680000000000000000e+02 3.657033040854414452e+01
4.690000000000000000e+02 3.415814127152000879e+01
4.700000000000000000e+02 5.130156301182380929e+01
4.710000000000000000e+02 6.045285549149727444e+01
4.720000000000000000e+02 3.990902939639084224e+01
4.730000000000000000e+02 8.111203395768383473e+01
4.740000000000000000e+02 6.315052500622219611e+01
4.750000000000000000e+02 1.013808545405552408e+01
4.760000000000000000e+02 9.074011668325775659e+00
4.770000000000000000e+02 6.412346109912920156e+01
4.780000000000000000e+02 7.025768503837379342e+01
4.790000000000000000e+02 3.757932148724347599e+01
4.800000000000000000e+02 6.039263973864481727e+01
4.810000000000000000e+02 1.356527860609832032e+02
4.820000000000000000e+02 1.117313747873883756e+02
4.830000000000000000e+02 5.454353366521345237e+01
4.840000000000000000e+02 8.083055409665529822e+00
4.850000000000000000e+02 2.046801706658457576e+01
4.860000000000000000e+02 6.528426339141246615e+01
4.870000000000000000e+02 4.814202230657529924e+01
4.880000000000000000e+02 9.075902326280964871e+01
4.890000000000000000e+02 1.424302771001857764e+02
4.900000000000000000e+02 1.305866682638467182e+02
4.910000000000000000e+02 6.417797523750431310e+01
4.920000000000000000e+02 2.918512944202423753e+01
4.930000000000000000e+02 7.251545948765792104e+01
4.940000000000000000e+02 6.176632668602297116e+01
4.950000000000000000e+02 1.535636826633477270e+01
4.960000000000000000e+02 1.422220073843564236e+01
4.970000000000000000e+02 8.411198725425136047e+01
4.980000000000000000e+02 7.751464141671831953e+01
4.990000000000000000e+02 5.931581243310512974e+01
5.000000000000000000e+02 8.632281477395356717e+01
5.010000000000000000e+02 1.052441800663758187e+02
5.020000000000000000e+02 7.537044835096432394e+01
5.030000000000000000e+02 1.168871838987962803e+02
5.040000000000000000e+02 1.266806021157435396e+02
5.050000000000000000e+02 1.059878467268196260e+02
5.060000000000000000e+02 8.573547451773505657e+01
5.070000000000000000e+02 9.697319113461796292e+01
5.080000000000000000e+02 1.484559941505914651e+02
5.090000000000000000e+02 6.916065734287558087e+01
5.100000000000000000e+02 4.016712460277905450e+01
5.110000000000000000e+02 8.686940899398355498e+01
5.120000000000000000e+02 1.139176740248958311e+02
5.130000000000000000e+02 6.439218104542483445e+01
5.140000000000000000e+02 4.949969429578935376e+01
5.150000000000000000e+02 6.630676828251469601e+01
5.160000000000000000e+02 1.086528751794206187e+02
5.170000000000000000e+02 1.260670510889847833e+02
5.180000000000000000e+02 5.974852533913819741e+01
5.190000000000000000e+02 4.538158902717250243e+01
5.200000000000000000e+02 6.104589185231158410e+01
5.210000000000000000e+02 1.045018775860618518e+02
5.220000000000000000e+02 1.268944556938402144e+02
5.230000000000000000e+02 8.584010605890954082e+01
5.240000000000000000e+02 6.655444723351318714e+01
5.250000000000000000e+02 5.314352622899811252e+01
5.260000000000000000e+02 7.379728630367151254e+01
5.270000000000000000e+02 9.592083218166740721e+01
5.280000000000000000e+02 6.332273324413861815e+01
5.290000000000000000e+02 1.649612636569214885e+01
5.300000000000000000e+02 3.758083606055923553e+01
5.310000000000000000e+02 5.855060159303027234e+01
5.320000000000000000e+02 6.912983801286154062e+01
5.330000000000000000e+02 7.369666596972064099e+01
5.340000000000000000e+02 6.763756809583163943e+00
5.350000000000000000e+02 2.659671141879435652e+01
5.360000000000000000e+02 5.977118791536987885e+01
5.370000000000000000e+02 5.732014504252300213e+01
5.380000000000000000e+02 3.268088303671500938e+01
5.390000000000000000e+02 3.082229697365682952e+01
5.400000000000000000e+02 9.168659354075896317e+01
5.410000000000000000e+02 1.026850875129641878e+02
5.420000000000000000e+02 8.831501080481200461e+01
5.430000000000000000e+02 6.629169332918429802e+01
5.440000000000000000e+02 5.400082331673937830e+01
5.450000000000000000e+02 9.537017199128710843e+01
5.460000000000000000e+02 5.673993375233264658e+01
5.470000000000000000e+02 6.412306255910482378e+01
5.480000000000000000e+02 6.515435468159975585e+01
5.490000000000000000e+02 3.263567973864316230e+01
5.500000000000000000e+02 3.619092110120349304e+01
5.510000000000000000e+02 7.755103112839582025e+01
5.520000000000000000e+02 6.180588482472435174e+01
5.530000000000000000e+02 6.928773611779485009e+01
5.540000000000000000e+02 9.370400541381457060e+01
5.550000000000000000e+02 6.098997518772098658e+01
5.560000000000000000e+02 6.635910576938837124e+00
5.570000000000000000e+02 7.944272311138905707e+01
5.580000000000000000e+02 1.152510507778469133e+02
5.590000000000000000e+02 5.607606245177063897e+01
5.600000000000000000e+02 2.257634103298114425e+01
5.610000000000000000e+02 3.047557298693196515e+01
5.620000000000000000e+02 6.642994470441930588e+00
5.630000000000000000e+02 1.860937490977004316e+01
5.640000000000000000e+02 4.297497691765214256e+01
5.650000000000000000e+02 6.964378502592867903e+01
5.660000000000000000e+02 7.646435645716641716e+01
5.670000000000000000e+02 4.924869528935901286e+01
5.680000000000000000e+02 6.753562224642142553e+01
5.690000000000000000e+02 1.138044297033725627e+01
5.700000000000000000e+02 4.934273051649146424e+00
5.710000000000000000e+02 7.417839844223207990e+01
5.720000000000000000e+02 1.890532173615445188e+01
5.730000000000000000e+02 6.793907541476548317e+01
5.740000000000000000e+02 8.728246893590539912e+01
5.750000000000000000e+02 9.810483182119892831e+01
5.760000000000000000e+02 1.252309973454997163e+02
5.770000000000000000e+02 1.307831713752329676e+02
5.780000000000000000e+02 3.806416382700702172e+01
5.790000000000000000e+02 9.190591671298213328e+01
5.800000000000000000e+02 7.850267656087928003e+01
5.810000000000000000e+02 3.188951667703788218e+01
5.820000000000000000e+02 5.654691326005808349e+01
5.830000000000000000e+02 5.205913508193322059e+01
5.840000000000000000e+02 5.829392351171948405e+01
5.850000000000000000e+02 2.394394703649923883e+01
5.860000000000000000e+02 1.286026509023021269e+01
5.870000000000000000e+02 4.190768113876781342e+01
5.880000000000000000e+02 7.802472111180250636e+01
5.890000000000000000e+02 1.311582235428334968e+02
5.900000000000000000e+02 5.007978008711724272e+01
5.910000000000000000e+02 3.801497725575579523e+01
5.920000000000000000e+02 6.048302358639321596e+01
5.930000000000000000e+02 3.127846834889093586e+01
5.940000000000000000e+02 1.572664741132541977e+01
5.950000000000000000e+02 4.237234013067772764e+01
5.960000000000000000e+02 3.080685606098400342e+01
5.970000000000000000e+02 5.386224258659955666e+01
5.980000000000000000e+02 7.596773494503257496e+01
5.990000000000000000e+02 3.601324272086028344e+01
6.000000000000000000e+02 1.087487388301181284e+02
6.010000000000000000e+02 9.207261319435843916e+01
6.020000000000000000e+02 2.122312480091318321e+01
6.030000000000000000e+02 1.749677523750228403e+01
6.040000000000000000e+02 3.646389841319259517e+01
6.050000000000000000e+02 4.772941814561294649e+01
6.060000000000000000e+02 4.187574666251827438e+01
6.070000000000000000e+02 4.411640433727470878e+01
6.080000000000000000e+02 5.980385063679696600e+01
6.090000000000000000e+02 7.790492886123161043e+01
6.100000000000000000e+02 7.429011653391499692e+01
6.110000000000000000e+02 2.644790901887675361e+01
6.120000000000000000e+02 1.529435967848993627e+01
6.130000000000000000e+02 4.428452214018965805e+01
6.140000000000000000e+02 6.814383843808332131e+01
6.150000000000000000e+02 5.991591858120784053e+01
6.160000000000000000e+02 3.447288058481937156e+01
6.170000000000000000e+02 7.107184356357606703e+01
6.180000000000000000e+02 3.496337688238912733e+01
6.190000000000000000e+02 2.253530347573535408e+01
6.200000000000000000e+02 1.133534666479838116e+01
6.210000000000000000e+02 1.642736565235412982e+01
6.220000000000000000e+02 2.104424614682512384e+01
6.230000000000000000e+02 1.039009644306133566e+02
6.240000000000000000e+02 8.712488017424026054e+01
6.250000000000000000e+02 5.818622390709293768e+01
6.260000000000000000e+02 4.569985007467402482e+01
6.270000000000000000e+02 3.121707617921627431e+01
6.280000000000000000e+02 2.477264008089635894e+01
6.290000000000000000e+02 8.419941529972797767e+00
6.300000000000000000e+02 5.059534064924172014e+01
6.310000000000000000e+02 4.895999537025493709e+01
6.320000000000000000e+02 5.029464104542629599e+00
6.330000000000000000e+02 8.347990640945869956e+00
6.340000000000000000e+02 4.718182274009625843e+01
6.350000000000000000e+02 4.217611442854136072e+01
6.360000000000000000e+02 2.363294148724289201e+01
6.370000000000000000e+02 5.258352318606399223e+01
6.380000000000000000e+02 9.611362585978095296e+01
6.390000000000000000e+02 7.217568491806599695e+01
6.400000000000000000e+02 8.004014171333683692e+01
6.410000000000000000e+02 9.183209293715026433e+01
6.420000000000000000e+02 6.402290920779539363e+01
6.430000000000000000e+02 4.693836308857019901e+01
6.440000000000000000e+02 6.092961600912711617e+01
6.450000000000000000e+02 3.425294980920855892e+01
6.460000000000000000e+02 1.397610396888605067e+01
6.470000000000000000e+02 5.722682621447781059e+01
6.480000000000000000e+02 6.526435650767234620e+01
6.490000000000000000e+02 3.024554846297456834e+01
6.500000000000000000e+02 4.123013805849402758e+01
6.510000000000000000e+02 1.975774780796291807e+01
6.520000000000000000e+02 3.647189750674240827e+01
6.530000000000000000e+02 7.897490302012121788e+01
6.540000000000000000e+02 7.573496215722677505e+01
6.550000000000000000e+02 4.726011024268807148e+01
6.560000000000000000e+02 4.903618142086743603e+01
6.570000000000000000e+02 6.462030333748121791e+01
6.580000000000000000e+02 9.059858661480991771e+01
6.590000000000000000e+02 6.962740426259988169e+01
6.600000000000000000e+02 2.815016106639096449e+01
6.610000000000000000e+02 2.105857273802140384e+01
6.620000000000000000e+02 4.460779987761797827e+01
6.630000000000000000e+02 7.463832658991898938e+01
6.640000000000000000e+02 4.456505496370066055e+01
6.650000000000000000e+02 3.281388205558996418e+01
6.660000000000000000e+02 2.176543043766787378e+01
6.670000000000000000e+02 5.057378965989222053e+01
6.680000000000000000e+02 5.030927564405712360e+01
6.690000000000000000e+02 7.005259000207433928e+01
6.700000000000000000e+02 6.211149232476153514e+01
6.710000000000000000e+02 3.700928499066523614e+01
6.720000000000000000e+02 4.582435493466103082e+01
6.730000000000000000e+02 6.222616070510117936e+01
6.740000000000000000e+02 4.957892828666246032e+00
6.750000000000000000e+02 8.315921624351781816e+01
6.760000000000000000e+02 6.988270977602623191e+01
6.770000000000000000e+02 6.089229514623528416e+01
6.780000000000000000e+02 4.494406475420058911e+01
6.790000000000000000e+02 1.214152716300271884e+01
6.800000000000000000e+02 1.771199992117825062e+01
6.810000000000000000e+02 4.435411690728062695e+01
6.820000000000000000e+02 8.052635441817042050e+00
6.830000000000000000e+02 3.965843681808641552e+00
6.840000000000000000e+02 9.607597612113957908e+00
6.850000000000000000e+02 1.720385492408228245e+01
6.860000000000000000e+02 8.603506794648376399e+01
6.870000000000000000e+02 1.064974938394523889e+02
6.880000000000000000e+02 8.869377143538689268e+01
6.890000000000000000e+02 6.224050116573359048e+01
6.900000000000000000e+02 8.279371790292350397e+01
6.910000000000000000e+02 1.159706255756067179e+02
6.920000000000000000e+02 8.624167559842391029e+01
6.930000000000000000e+02 9.457016713544892639e+01
6.940000000000000000e+02 6.563235633685865267e+00
6.950000000000000000e+02 3.523914633478486991e+01
6.960000000000000000e+02 8.318892938614746413e+01
6.970000000000000000e+02 6.382595160962464576e+01
6.980000000000000000e+02 6.660233439120543153e+01
6.990000000000000000e+02 9.012292090418863211e+01
7.000000000000000000e+02 1.068231452395767320e+02
7.010000000000000000e+02 9.325654321095287003e+01
7.020000000000000000e+02 7.173429094981365495e+01
7.030000000000000000e+02 7.829326851690456124e+01
7.040000000000000000e+02 9.622003726197894480e+01
7.050000000000000000e+02 4.480880378059002567e+01
7.060000000000000000e+02 9.102527904741801734e-01
7.070000000000000000e+02 5.931402912673493688e+01
7.080000000000000000e+02 9.328128619995879944e+01
7.090000000000000000e+02 7.000160026757941978e+01
7.100000000000000000e+02 7.072880341215490319e+01
7.110000000000000000e+02 8.899821090645082222e+01
7.120000000000000000e+02 6.133657923459823280e+01
7.130000000000000000e+02 2.821034614810186980e+01
7.140000000000000000e+02 5.566441034225050544e+01
7.150000000000000000e+02 8.866174594067554438e+01
7.160000000000000000e+02 5.024990415473828165e+01
7.170000000000000000e+02 7.791834557561171160e+00
7.180000000000000000e+02 5.116053569383684874e+01
7.190000000000000000e+02 9.898434401161375717e+01
7.200000000000000000e+02 1.267445598008703342e+02
7.210000000000000000e+02 9.122977789670581217e+01
7.220000000000000000e+02 2.280564098299240072e+01
7.230000000000000000e+02 8.134463801493410529e+01
7.240000000000000000e+02 9.201856331051706661e+01
7.250000000000000000e+02 2.160002224803010762e+01
7.260000000000000000e+02 1.222608394420225153e+01
7.270000000000000000e+02 1.427868895457374521e+01
7.280000000000000000e+02 4.139430029033721326e+01
7.290000000000000000e+02 1.083824984028215255e+02
7.300000000000000000e+02 6.595424232939086551e+01
7.310000000000000000e+02 7.392657821235869164e+01
7.320000000000000000e+02 6.640364033602834581e+01
7.330000000000000000e+02 6.717711746733158407e+01
7.340000000000000000e+02 8.399897156606628812e+01
7.350000000000000000e+02 4.997650303671696292e+01
7.360000000000000000e+02 1.931402782824712006e+00
7.370000000000000000e+02 1.438855225824416273e+01
7.380000000000000000e+02 7.440727823895319659e+01
7.390000000000000000e+02 8.711350934246100053e+01
7.400000000000000000e+02 6.260543803360298654e+01
7.410000000000000000e+02 6.915812204729307666e+01
7.420000000000000000e+02 6.042481473345788601e+01
7.430000000000000000e+02 1.833266658162251161e+01
7.440000000000000000e+02 9.099570311137895828e+00
7.450000000000000000e+02 2.884787749222215325e+01
7.460000000000000000e+02 6.090619167392799227e+01
7.470000000000000000e+02 7.318919855216751102e+01
7.480000000000000000e+02 4.487615013687255328e+01
7.490000000000000000e+02 4.862171838207903818e+01
7.500000000000000000e+02 6.612142530802793772e+01
7.510000000000000000e+02 7.925140523226879452e+01
7.520000000000000000e+02 4.203170696951123375e+01
7.530000000000000000e+02 1.001587831362832048e+01
7.540000000000000000e+02 1.876487205723824303e+01
7.550000000000000000e+02 2.448705914747969459e+01
7.560000000000000000e+02 6.453693576643807717e+01
7.570000000000000000e+02 8.549513166528414843e+01
7.580000000000000000e+02 7.702956643849805118e+01
7.590000000000000000e+02 3.066908994399413046e+01
7.600000000000000000e+02 1.968291246785580384e+01
7.610000000000000000e+02 8.166553640323736829e+01
7.620000000000000000e+02 1.030321617423763030e+02
7.630000000000000000e+02 5.122657420244572535e+01
7.640000000000000000e+02 3.888792912881243069e+01
7.650000000000000000e+02 8.012902994399594547e+01
7.660000000000000000e+02 1.129279087118855216e+02
7.670000000000000000e+02 1.089256657125078362e+02
7.680000000000000000e+02 1.167329159270006471e+02
7.690000000000000000e+02 4.238236133789781945e+01
7.700000000000000000e+02 7.478545358224278061e+01
7.710000000000000000e+02 1.163195814392365577e+02
7.720000000000000000e+02 1.067298611698818576e+02
7.730000000000000000e+02 1.123033718730553119e+02
7.740000000000000000e+02 3.364313089174419247e+01
7.750000000000000000e+02 7.454414452810715375e+01
7.760000000000000000e+02 1.045677978012861331e+02
7.770000000000000000e+02 1.029199678137311338e+02
7.780000000000000000e+02 8.570134423148689962e+01
7.790000000000000000e+02 6.444812616469586430e+01
7.800000000000000000e+02 5.282253200995728548e+01
7.810000000000000000e+02 1.030635703318817917e+02
7.820000000000000000e+02 5.258308453640293578e+01
7.830000000000000000e+02 4.691186686994323907e+01
7.840000000000000000e+02 5.564048235843171142e+01
7.850000000000000000e+02 5.584996371084837818e+01
7.860000000000000000e+02 8.323706073013902085e+01
7.870000000000000000e+02 8.267598299937770889e+01
7.880000000000000000e+02 7.269570802364154360e+01
7.890000000000000000e+02 1.318703904791542527e+02
7.900000000000000000e+02 1.193205499896285460e+02
7.910000000000000000e+02 6.716775571547077561e+01
7.920000000000000000e+02 6.288489600497833010e+01
7.930000000000000000e+02 6.448305615847340277e+01
7.940000000000000000e+02 1.871011103712151069e+01
7.950000000000000000e+02 8.862404395975985949e+00
7.960000000000000000e+02 5.042416985687585651e+01
7.970000000000000000e+02 6.022796299460797798e+01
7.980000000000000000e+02 5.233517881767268420e+01
7.990000000000000000e+02 6.282334102260953301e+01
8.000000000000000000e+02 1.297281196184143504e+01
8.010000000000000000e+02 4.028730768512741633e+01
8.020000000000000000e+02 3.889493614602795191e+01
8.030000000000000000e+02 3.311713750051918925e+00
8.040000000000000000e+02 1.420164397324133354e+01
8.050000000000000000e+02 8.535226140634756575e+01
8.060000000000000000e+02 9.574592200995644475e+01
8.070000000000000000e+02 8.403890479568588034e+01
8.080000000000000000e+02 4.277376308649726866e+01
8.090000000000000000e+02 5.062527554864114876e+01
8.100000000000000000e+02 7.430876245177324790e+01
8.110000000000000000e+02 7.658005663347867653e+01
8.120000000000000000e+02 5.904129269861052620e+01
8.130000000000000000e+02 2.980965825347481157e+01
8.140000000000000000e+02 3.546532043559400904e+01
8.150000000000000000e+02 3.935240280024866166e+01
8.160000000000000000e+02 7.530813968886089071e+01
8.170000000000000000e+02 7.319678448154334660e+01
8.180000000000000000e+02 4.036081795478113321e+01
8.190000000000000000e+02 3.411547008711862361e+01
8.200000000000000000e+02 2.197314759850642574e+01
8.210000000000000000e+02 5.755715464011535687e+01
8.220000000000000000e+02 8.344608111387712768e+01
8.230000000000000000e+02 6.072960877022106274e+01
8.240000000000000000e+02 4.725306083385159894e+01
8.250000000000000000e+02 3.752092446080624910e+01
8.260000000000000000e+02 4.072134539930110542e+00
8.270000000000000000e+02 2.577102938394644127e+01
8.280000000000000000e+02 3.383470849025297156e+01
8.290000000000000000e+02 3.804663070109598255e+00
8.300000000000000000e+02 5.563228914126119307e+00
8.310000000000000000e+02 4.264986256170775647e+00
8.320000000000000000e+02 1.864866254760276121e+01
8.330000000000000000e+02 7.495883509023019542e+01
8.340000000000000000e+02 6.652685013275254278e+01
8.350000000000000000e+02 8.179373972204938070e+01
8.360000000000000000e+02 5.784878887990042529e+01
8.370000000000000000e+02 5.271823660236514542e+01
8.380000000000000000e+02 3.364351450113973385e+01
8.390000000000000000e+02 1.953724310267643105e+01
8.400000000000000000e+02 6.712783034432850116e+01
8.410000000000000000e+02 5.944360076540063176e+01
8.420000000000000000e+02 2.516702332227299976e+01
8.430000000000000000e+02 5.765754358224311460e+01
8.440000000000000000e+02 5.615299081518197966e+01
8.450000000000000000e+02 2.739263189547838806e+01
8.460000000000000000e+02 2.169787253889207790e+01
8.470000000000000000e+02 4.151090346815917798e+01
8.480000000000000000e+02 7.572979541891291433e+01
8.490000000000000000e+02 8.379155207425844765e+01
8.500000000000000000e+02 9.759449429993770764e+01
8.510000000000000000e+02 4.629748751140496665e+01
8.520000000000000000e+02 1.363627939016827817e+01
8.530000000000000000e+02 4.191061626426083819e+01
8.540000000000000000e+02 4.841826367897154881e+01
8.550000000000000000e+02 5.118624830118166358e+01
8.560000000000000000e+02 3.098571488280382269e+01
8.570000000000000000e+02 8.380176899398900758e+00
8.580000000000000000e+02 5.425712150798837285e+01
8.590000000000000000e+02 6.299802110765205754e+01
8.600000000000000000e+02 2.401268814561199250e+01
8.610000000000000000e+02 5.715024878863248858e+01
8.620000000000000000e+02 5.802792800871151968e+01
8.630000000000000000e+02 1.738451177805478309e+01
8.640000000000000000e+02 2.058658107653982228e+01
8.650000000000000000e+02 1.724504185231311482e+01
8.660000000000000000e+02 4.001860771001955897e+01
8.670000000000000000e+02 9.284496042314897579e+01
8.680000000000000000e+02 7.972514346608566882e+01
8.690000000000000000e+02 4.705721205351781578e+01
8.700000000000000000e+02 1.187095883634103046e+02
8.710000000000000000e+02 7.539275467233431982e+01
8.720000000000000000e+02 4.169390889234594511e+01
8.730000000000000000e+02 4.264187858743004256e+01
8.740000000000000000e+02 3.983081094151786061e+01
8.750000000000000000e+02 2.628941632233940950e+01
8.760000000000000000e+02 2.198088559012669663e+01
8.770000000000000000e+02 7.166385495230250058e+01
8.780000000000000000e+02 5.236218472931001600e+01
8.790000000000000000e+02 8.501138348889988094e+00
8.800000000000000000e+02 5.624007538365940029e+00
8.810000000000000000e+02 2.754961715619174001e+01
8.820000000000000000e+02 4.356819276913511629e+01
8.830000000000000000e+02 5.690286769134910116e+01
8.840000000000000000e+02 7.682615010164010272e+00
8.850000000000000000e+02 8.969002070109894476e+00
8.860000000000000000e+02 3.289743621655277650e+01
8.870000000000000000e+02 4.508911003111391125e+01
8.880000000000000000e+02 3.949507512341849491e+01
8.890000000000000000e+02 2.444718348890267379e+01
8.900000000000000000e+02 3.393608842771210732e+01
8.910000000000000000e+02 6.426269490354684422e+01
8.920000000000000000e+02 4.915347801493454227e+01
8.930000000000000000e+02 8.614505938809355712e+01
8.940000000000000000e+02 5.621579022609515164e+01
8.950000000000000000e+02 1.353955507363619404e+01
8.960000000000000000e+02 2.587331331051642636e+01
8.970000000000000000e+02 4.406252941518040700e+01
8.980000000000000000e+02 4.346047588881975088e+01
8.990000000000000000e+02 4.426983553412124905e+01
9.000000000000000000e+02 8.500432301949352620e+01
9.010000000000000000e+02 7.968281822028647809e+01
9.020000000000000000e+02 4.237819153287752982e+01
9.030000000000000000e+02 2.404831077561176755e+01
9.040000000000000000e+02 2.452750346401165160e+01
9.050000000000000000e+02 1.943442629744869521e+01
9.060000000000000000e+02 2.290829698257979885e+01
9.070000000000000000e+02 2.481797715411738992e+01
9.080000000000000000e+02 2.440202999170298526e+01
9.090000000000000000e+02 1.816065862061805092e+01
9.100000000000000000e+02 5.656916056004904192e+01
9.110000000000000000e+02 1.048962768720186318e+02
9.120000000000000000e+02 6.941912559220062917e+01
9.130000000000000000e+02 6.165621587844822216e+01
9.140000000000000000e+02 4.012135482887347138e+01
9.150000000000000000e+02 3.493237619788416026e+01
9.160000000000000000e+02 5.117686329392176958e+01
9.170000000000000000e+02 7.556349062435253927e+01
9.180000000000000000e+02 5.497824196017545262e+01
9.190000000000000000e+02 3.045908153703262400e+00
9.200000000000000000e+02 2.231242448910854392e+01
9.210000000000000000e+02 1.093969258660013821e+02
9.220000000000000000e+02 1.292328816635974675e+01
9.230000000000000000e+02 2.285785502488440457e+01
9.240000000000000000e+02 4.219223214063496386e+01
9.250000000000000000e+02 1.698310116656337954e+01
9.260000000000000000e+02 3.247421645790022637e+01
9.270000000000000000e+02 1.064578729931548509e+02
9.280000000000000000e+02 6.891372817672653639e+01
9.290000000000000000e+02 2.763274953131532641e+01
9.300000000000000000e+02 5.134589229413114708e+01
9.310000000000000000e+02 1.012549094109118499e+02
9.320000000000000000e+02 7.494079475835124526e+01
9.330000000000000000e+02 5.997798597386211839e+01
9.340000000000000000e+02 9.926186747977625657e+01
9.350000000000000000e+02 5.640784840904505870e+01
9.360000000000000000e+02 4.122616632856142616e+01
9.370000000000000000e+02 7.239310729780164877e+01
9.380000000000000000e+02 5.656840256378424669e+01
9.390000000000000000e+02 6.762405329598708548e+00
9.400000000000000000e+02 1.672685507673114813e+01
9.410000000000000000e+02 7.340158503422536285e+01
9.420000000000000000e+02 1.064799225264467992e+02
9.430000000000000000e+02 7.551932337204409862e+01
9.440000000000000000e+02 1.897150053308356377e+01
9.450000000000000000e+02 4.039442018460988493e+01
9.460000000000000000e+02 7.505170317295601023e+01
9.470000000000000000e+02 6.477300281269285165e+01
9.480000000000000000e+02 6.200992110765478316e+01
9.490000000000000000e+02 7.481959441932815480e+01
9.500000000000000000e+02 5.931936600082950406e+01
9.510000000000000000e+02 5.506490497200019263e+01
9.520000000000000000e+02 6.319304974486714244e+00
9.530000000000000000e+02 4.197019699647249524e+01
9.540000000000000000e+02 7.553840717900810375e+01
9.550000000000000000e+02 7.593660884048959758e+01
9.560000000000000000e+02 4.757997848786581585e+01
9.570000000000000000e+02 2.389230592200785708e+01
9.580000000000000000e+02 2.690620725368168920e+01
9.590000000000000000e+02 1.988913665629556959e+01
9.600000000000000000e+02 6.299648421904230844e+01
9.610000000000000000e+02 5.117692658991803256e+01
9.620000000000000000e+02 8.505821964115534684e+01
9.630000000000000000e+02 7.632205443384346211e+01
9.640000000000000000e+02 6.916333509230693721e+01
9.650000000000000000e+02 8.241039851897669166e+01
9.660000000000000000e+02 2.902162485068402020e+01
9.670000000000000000e+02 3.258677652976513883e+01
9.680000000000000000e+02 4.040592359469025752e+01
9.690000000000000000e+02 9.038013135214072236e+00
9.700000000000000000e+02 9.196729649035257026e+00
9.710000000000000000e+02 3.386668674756248265e+01
9.720000000000000000e+02 4.746597100165909211e+01
9.730000000000000000e+02 1.731411805641908686e+01
9.740000000000000000e+02 3.107815030491604347e+01
9.750000000000000000e+02 3.797684734799035056e+01
9.760000000000000000e+02 4.883434160340177499e+01
9.770000000000000000e+02 3.886509647790887101e+01
9.780000000000000000e+02 2.882400890893989853e+01
9.790000000000000000e+02 2.900451632856285755e+01
9.800000000000000000e+02 5.871465354076023857e+01
9.810000000000000000e+02 7.152990416303431687e+01
9.820000000000000000e+02 1.716208953909900004e+01
9.830000000000000000e+02 4.674194551960153099e+00
9.840000000000000000e+02 1.499940075917813331e+01
9.850000000000000000e+02 7.075458156813840560e+01
9.860000000000000000e+02 5.401765894212759633e+01
9.870000000000000000e+02 6.771084216345185780e+01
9.880000000000000000e+02 5.591202896079633433e+01
9.890000000000000000e+02 1.006631487865584340e+01
9.900000000000000000e+02 3.003780029039620558e+01
9.910000000000000000e+02 5.850478787432577121e+01
9.920000000000000000e+02 7.668734786558799499e+01
9.930000000000000000e+02 5.082481791744467614e+01
9.940000000000000000e+02 2.356365770219836975e+01
9.950000000000000000e+02 2.270896111802531436e+01
9.960000000000000000e+02 3.777333107031722648e+01
9.970000000000000000e+02 4.567074350269597005e+01
9.980000000000000000e+02 2.531920086911445367e+01
9.990000000000000000e+02 7.301871419622584902e+00
1.000000000000000000e+03 4.613606257462862459e+01
1.001000000000000000e+03 5.871991981327809640e+01
1.002000000000000000e+03 3.046985885891990975e+01
1.003000000000000000e+03 3.666856834024854095e+01
1.004000000000000000e+03 3.857033796680568827e+01
1.005000000000000000e+03 2.221774514522797617e+01
1.006000000000000000e+03 2.522250497925169199e+01
1.007000000000000000e+03 5.144124194616980361e+01
1.008000000000000000e+03 3.307322624481339801e+01
1.009000000000000000e+03 2.095899203319494575e+01
1.010000000000000000e+03 1.017059500000000005e+00
1.011000000000000000e+03 5.378111709543526331e+01
1.012000000000000000e+03 6.898088742738487156e+01
1.013000000000000000e+03 2.793957394190973531e+01
1.014000000000000000e+03 3.176074564314941284e+00
1.015000000000000000e+03 2.657448053111961173e+01
1.016000000000000000e+03 8.286785875776331523e+01
1.017000000000000000e+03 7.559757692946364571e+00
1.018000000000000000e+03 4.847637419086999699e+01
1.019000000000000000e+03 6.606380767634851736e+01
1.020000000000000000e+03 6.428527381742743785e+01
1.021000000000000000e+03 5.131971767634819059e+01
1.022000000000000000e+03 3.807899402489626794e+01
1.023000000000000000e+03 5.077939406639032427e+01
1.024000000000000000e+03 7.209154068322951048e+01
1.025000000000000000e+03 4.859858029045587102e+01
1.026000000000000000e+03 7.819428504149169612e+01
1.027000000000000000e+03 7.821427358921185657e+01
1.028000000000000000e+03 5.435214623188228700e+01
1.029000000000000000e+03 2.803867282157877483e+01
1.030000000000000000e+03 2.881934813277944940e+01
1.031000000000000000e+03 5.104005834024930266e+01
1.032000000000000000e+03 5.526396707468732927e+01
1.033000000000000000e+03 4.260133304979147795e+01
1.034000000000000000e+03 5.980377477178423362e+01
1.035000000000000000e+03 5.102521248962636236e+01
1.036000000000000000e+03 7.099616428571457050e+01
1.037000000000000000e+03 3.952273668049923572e+01
1.038000000000000000e+03 3.639910518672332529e+01
1.039000000000000000e+03 2.349011721991112722e+01
1.040000000000000000e+03 2.033036224066258768e+01
1.041000000000000000e+03 1.405046647302878959e+01
1.042000000000000000e+03 1.663774617842560133e+01
1.043000000000000000e+03 4.223176794605669926e+01
1.044000000000000000e+03 9.216348364388050385e+00
1.045000000000000000e+03 7.058306049792803094e+01
1.046000000000000000e+03 7.538455095435433861e+01
1.047000000000000000e+03 4.700184875518782235e+01
1.048000000000000000e+03 2.680884435684636458e+01
1.049000000000000000e+03 1.755438663900456575e+01
1.050000000000000000e+03 4.218781269709074877e+01
1.051000000000000000e+03 9.272953695020709119e+01
1.052000000000000000e+03 8.082148572614002546e+01
1.053000000000000000e+03 5.336815776397609312e+01
1.054000000000000000e+03 3.919877995850648489e+01
1.055000000000000000e+03 5.300725008298802265e+01
1.056000000000000000e+03 5.505300365145118491e+01
1.057000000000000000e+03 4.116796608695732118e+01
1.058000000000000000e+03 5.079561246887958248e+01
1.059000000000000000e+03 8.503443848547742334e+01
1.060000000000000000e+03 7.732910109958217504e+01
1.061000000000000000e+03 4.331398564315355770e+01
1.062000000000000000e+03 6.587017560166023600e+01
1.063000000000000000e+03 5.387662697095153419e+01
1.064000000000000000e+03 2.623799481327980487e+01
1.065000000000000000e+03 5.449834927536175933e+00
1.066000000000000000e+03 1.376370889211829507e+01
1.067000000000000000e+03 1.200436894398395360e+01
1.068000000000000000e+03 4.473657165975085093e+01
1.069000000000000000e+03 1.396808852697038716e+01
1.070000000000000000e+03 3.622662344398725054e+01
1.071000000000000000e+03 9.849527448132725738e+01
1.072000000000000000e+03 8.474753107883807957e+01
1.073000000000000000e+03 8.030377958506230129e+01
1.074000000000000000e+03 6.327574796680772096e+01
1.075000000000000000e+03 5.039080518672177078e+01
1.076000000000000000e+03 4.387678363070309473e+01
1.077000000000000000e+03 2.748930580912846722e+01
1.078000000000000000e+03 6.865053165975018601e+01
1.079000000000000000e+03 6.772403946058074098e+01
1.080000000000000000e+03 5.807073124481240001e+01
1.081000000000000000e+03 4.408590443983536744e+01
1.082000000000000000e+03 2.363604927536246336e+01
1.083000000000000000e+03 2.281679479253168807e+01
1.084000000000000000e+03 1.842487016597664606e+01
1.085000000000000000e+03 2.598313022821366758e+01
1.086000000000000000e+03 6.294104366459657740e+01
1.087000000000000000e+03 7.112398522821476377e+01
1.088000000000000000e+03 5.246777224066425305e+01
1.089000000000000000e+03 5.472093344398327019e+01
1.090000000000000000e+03 6.928050782608734437e+01
1.091000000000000000e+03 4.645254045643454788e+01
1.092000000000000000e+03 3.022130529045644209e+01
1.093000000000000000e+03 7.476721292531328800e+01
1.094000000000000000e+03 8.654062407867783691e+01
1.095000000000000000e+03 7.045062464730089857e+01
1.096000000000000000e+03 1.039199348547718245e+02
1.097000000000000000e+03 5.289891228215457630e+01
1.098000000000000000e+03 2.540634376811525641e+01
1.099000000000000000e+03 3.911695460580892814e+01
1.100000000000000000e+03 4.583319800829903556e+01
1.101000000000000000e+03 6.155906304979316701e+01
1.102000000000000000e+03 6.503728470954411023e+01
1.103000000000000000e+03 5.451337580912840508e+01
1.104000000000000000e+03 5.743591933610123590e+01
1.105000000000000000e+03 6.123865004149649138e+01
1.106000000000000000e+03 5.704244203319387196e+01
1.107000000000000000e+03 1.075226981327804765e+02
1.108000000000000000e+03 5.077965062240967598e+01
1.109000000000000000e+03 7.464650738588974832e+01
1.110000000000000000e+03 1.124850339834028006e+02
1.111000000000000000e+03 8.266006380951824895e+01
1.112000000000000000e+03 2.763934768465021818e+01
1.113000000000000000e+03 5.530215701244660664e+00
1.114000000000000000e+03 3.051312576763696072e+01
1.115000000000000000e+03 5.712653028985411652e+01
1.116000000000000000e+03 4.250372950207474787e+01
1.117000000000000000e+03 4.631790734439848478e+01
1.118000000000000000e+03 5.112891211618286746e+01
1.119000000000000000e+03 5.364566051759808119e+01
1.120000000000000000e+03 6.478354863070542535e+01
1.121000000000000000e+03 7.587196775933668391e+01
1.122000000000000000e+03 6.123569448132951720e+01
1.123000000000000000e+03 1.720637316770314129e+01
1.124000000000000000e+03 2.138152269709700448e+01
1.125000000000000000e+03 7.723137068463988442e+01
1.126000000000000000e+03 2.298671821576684238e+01
1.127000000000000000e+03 4.860381763975146896e+01
1.128000000000000000e+03 8.605144705393773563e+01
1.129000000000000000e+03 1.154803155186294994e+01
1.130000000000000000e+03 3.615788531120091420e+01
1.131000000000000000e+03 8.582273219917047413e+01
1.132000000000000000e+03 4.599107686722061317e+01
1.133000000000000000e+03 1.526020946058008221e+01
1.134000000000000000e+03 6.182008732365218151e+01
1.135000000000000000e+03 1.000015853319501389e+02
1.136000000000000000e+03 6.080417348547999978e+01
1.137000000000000000e+03 4.287074390041500749e+01
1.138000000000000000e+03 8.011755261410937123e+01
1.139000000000000000e+03 2.224553939003870440e+01
1.140000000000000000e+03 1.931141935684614097e+01
1.141000000000000000e+03 2.079848850622415668e+01
1.142000000000000000e+03 5.423189047718307165e+01
1.143000000000000000e+03 8.244140431535342373e+01
1.144000000000000000e+03 5.187187652173980723e+01
1.145000000000000000e+03 1.555328364315584011e+01
1.146000000000000000e+03 3.254930497925355581e+01
1.147000000000000000e+03 2.814262161825503483e+01
1.148000000000000000e+03 4.383958345755718256e+01
1.149000000000000000e+03 5.298134043568588680e+01
1.150000000000000000e+03 7.868062910788192710e+01
1.151000000000000000e+03 6.395139659751056627e+01
1.152000000000000000e+03 6.584917688796655000e+01
1.153000000000000000e+03 2.393415091286538399e+01
1.154000000000000000e+03 1.547182609128675068e+01
1.155000000000000000e+03 3.581116879668159925e+01
1.156000000000000000e+03 6.157184904761919597e+01
1.157000000000000000e+03 7.108068385891986907e+01
1.158000000000000000e+03 8.635242970954342923e+01
1.159000000000000000e+03 4.640057458506023380e+01
1.160000000000000000e+03 5.060714954356824080e+01
1.161000000000000000e+03 4.446150199170142514e+01
1.162000000000000000e+03 4.902518041493850376e+01
1.163000000000000000e+03 6.302852443983550756e+01
1.164000000000000000e+03 1.848725058091782358e+01
1.165000000000000000e+03 1.552336479253101942e+01
1.166000000000000000e+03 9.419366630704908516e+01
1.167000000000000000e+03 4.704696385892297172e+01
1.168000000000000000e+03 3.213655487551883283e+01
1.169000000000000000e+03 3.511757572614298795e+01
1.170000000000000000e+03 7.207251182572709070e+01
1.171000000000000000e+03 6.688087323651532756e+01
1.172000000000000000e+03 5.116738116182552432e+01
1.173000000000000000e+03 3.874361258799084595e+01
1.174000000000000000e+03 4.702501657676202740e+01
1.175000000000000000e+03 5.880810981327798714e+01
1.176000000000000000e+03 4.997219651452196842e+01
1.177000000000000000e+03 3.417394161490763338e+01
1.178000000000000000e+03 3.603343966804949616e+01
1.179000000000000000e+03 5.374276253111873558e+01
1.180000000000000000e+03 7.125312468879243077e+00
1.181000000000000000e+03 1.813768802904415622e+01
1.182000000000000000e+03 4.899238873444006970e+01
1.183000000000000000e+03 8.046596663900531610e+01
1.184000000000000000e+03 6.442414962655998067e+01
1.185000000000000000e+03 3.457929743271271406e+01
1.186000000000000000e+03 2.823015684647324974e+01
1.187000000000000000e+03 3.099903049792554199e+01
1.188000000000000000e+03 4.764504709543309957e+01
1.189000000000000000e+03 8.150216207468878338e+01
1.190000000000000000e+03 6.332344373443854124e+01
1.191000000000000000e+03 5.900629275933668794e+01
1.192000000000000000e+03 1.076776697095410285e+01
1.193000000000000000e+03 4.427921140786994414e+01
1.194000000000000000e+03 1.122556336099549412e+02
1.195000000000000000e+03 1.085641810788406048e+02
1.196000000000000000e+03 3.420629702074579370e+01
1.197000000000000000e+03 1.560700617012910385e+01
1.198000000000000000e+03 6.763843537344118317e+01
1.199000000000000000e+03 9.110977879668045887e+01
1.200000000000000000e+03 8.199074966804879239e+01
1.201000000000000000e+03 5.480136653527105040e+01
1.202000000000000000e+03 2.212531523809542833e+01
1.203000000000000000e+03 6.363149443983533615e+01
1.204000000000000000e+03 6.724823676348448487e+01
1.205000000000000000e+03 3.709241439834296727e+01
1.206000000000000000e+03 3.739303968879666940e+01
1.207000000000000000e+03 2.145660643153365754e+01
1.208000000000000000e+03 2.058068315352404198e+01
1.209000000000000000e+03 4.053212506224043921e+01
1.210000000000000000e+03 4.950443207468936180e+01
1.211000000000000000e+03 7.286970933610002987e+01
1.212000000000000000e+03 9.238630796680646995e+01
1.213000000000000000e+03 4.894242439834034286e+01
1.214000000000000000e+03 1.673609931676994123e+01
1.215000000000000000e+03 5.849740894190519214e+01
1.216000000000000000e+03 5.925116338174314023e+01
1.217000000000000000e+03 5.850867004149380080e+01
1.218000000000000000e+03 1.619609744812814611e+01
1.219000000000000000e+03 2.166044390041052381e+01
1.220000000000000000e+03 7.484212896265532322e+01
1.221000000000000000e+03 6.354173933609985170e+01
1.222000000000000000e+03 5.749336904762230915e+01
1.223000000000000000e+03 4.382810508298724983e+01
1.224000000000000000e+03 5.632595149377375776e+01
1.225000000000000000e+03 9.400928682572484263e+00
1.226000000000000000e+03 2.968438763485224285e+01
1.227000000000000000e+03 1.052756268879677322e+02
1.228000000000000000e+03 4.207589510372598340e+01
1.229000000000000000e+03 2.135223771784109914e+01
1.230000000000000000e+03 1.675178468879694904e+01
1.231000000000000000e+03 1.283665590062137696e+01
1.232000000000000000e+03 1.537580875518671597e+01
1.233000000000000000e+03 5.564085871368973102e+01
1.234000000000000000e+03 8.993872016597367747e+01
1.235000000000000000e+03 3.284942348547605917e+01
1.236000000000000000e+03 3.534510132779795555e+01
1.237000000000000000e+03 7.146732697095438880e+01
1.238000000000000000e+03 3.863635211618025522e+01
1.239000000000000000e+03 1.144054256728779428e+01
1.240000000000000000e+03 4.761954665974990064e+01
1.241000000000000000e+03 7.053330396265577917e+01
1.242000000000000000e+03 4.473701176348163955e+01
1.243000000000000000e+03 1.941261202898630600e+01
1.244000000000000000e+03 4.846339634854841449e+01
1.245000000000000000e+03 8.394756908713826249e+01
1.246000000000000000e+03 5.836406825726706415e+01
1.247000000000000000e+03 1.785724341614821498e+01
1.248000000000000000e+03 5.543573248963002698e+01
1.249000000000000000e+03 9.755241719916695331e+01
1.250000000000000000e+03 4.113662375518622838e+01
1.251000000000000000e+03 7.963923313278023386e+01
1.252000000000000000e+03 8.639011950207193991e+01
1.253000000000000000e+03 2.408556349793029483e+01
1.254000000000000000e+03 3.353515958506132932e+01
1.255000000000000000e+03 4.160276273858851681e+01
1.256000000000000000e+03 6.567717834024642798e+01
1.257000000000000000e+03 6.476919323651608806e+01
1.258000000000000000e+03 1.129936794813166756e+01
1.259000000000000000e+03 2.310427280498194236e+01
1.260000000000000000e+03 8.569780539419910781e+01
1.261000000000000000e+03 5.238744182572540709e+00
1.262000000000000000e+03 4.648396543568656369e+01
1.263000000000000000e+03 6.559427800829847399e+01
1.264000000000000000e+03 4.984834865424532779e+01
1.265000000000000000e+03 2.415906487551801263e+01
1.266000000000000000e+03 1.611459093360968353e+01
1.267000000000000000e+03 4.694617908713452081e+00
1.268000000000000000e+03 1.184638031055911078e+01
1.269000000000000000e+03 3.707118771784357136e+01
1.270000000000000000e+03 5.877987066389920301e+01
1.271000000000000000e+03 9.115492062240522841e+01
1.272000000000000000e+03 1.000753501449269152e+02
1.273000000000000000e+03 6.023592612032889804e+01
1.274000000000000000e+03 4.242927304979141923e+01
1.275000000000000000e+03 5.818926516597514365e+01
1.276000000000000000e+03 5.170450743270718164e+01
1.277000000000000000e+03 1.983194557676632286e+01
1.278000000000000000e+03 8.052330468879449654e+01
1.279000000000000000e+03 1.182607365145218949e+02
1.280000000000000000e+03 6.697026323651566315e+01
1.281000000000000000e+03 5.167741244813211665e+01
1.282000000000000000e+03 4.069049987551819925e+01
1.283000000000000000e+03 5.062929680498294260e+01
1.284000000000000000e+03 7.618602867219924235e+01
1.285000000000000000e+03 7.463602195020747843e+01
1.286000000000000000e+03 4.594160012447907349e+01
1.287000000000000000e+03 7.099497962654300665e+00
1.288000000000000000e+03 2.964863502074435431e+01
1.289000000000000000e+03 7.076258900414964614e+01
1.290000000000000000e+03 5.731369721991512733e+01
1.291000000000000000e+03 0.000000000000000000e+00
1.292000000000000000e+03 0.000000000000000000e+00
1.293000000000000000e+03 0.000000000000000000e+00
1.294000000000000000e+03 0.000000000000000000e+00
1.295000000000000000e+03 0.000000000000000000e+00
1.296000000000000000e+03 0.000000000000000000e+00
1.297000000000000000e+03 0.000000000000000000e+00
1.298000000000000000e+03 0.000000000000000000e+00
1.299000000000000000e+03 0.000000000000000000e+00
1.300000000000000000e+03 0.000000000000000000e+00
1.301000000000000000e+03 0.000000000000000000e+00
1.302000000000000000e+03 0.000000000000000000e+00
1.303000000000000000e+03 0.000000000000000000e+00
1.304000000000000000e+03 0.000000000000000000e+00
1.305000000000000000e+03 0.000000000000000000e+00
1.306000000000000000e+03 0.000000000000000000e+00
1.307000000000000000e+03 0.000000000000000000e+00
1.308000000000000000e+03 0.000000000000000000e+00
1.309000000000000000e+03 0.000000000000000000e+00
1.310000000000000000e+03 0.000000000000000000e+00
1.311000000000000000e+03 0.000000000000000000e+00
1.312000000000000000e+03 0.000000000000000000e+00
1.313000000000000000e+03 0.000000000000000000e+00
1.314000000000000000e+03 0.000000000000000000e+00
1.315000000000000000e+03 0.000000000000000000e+00
1.316000000000000000e+03 0.000000000000000000e+00
1.317000000000000000e+03 0.000000000000000000e+00
1.318000000000000000e+03 0.000000000000000000e+00
1.319000000000000000e+03 0.000000000000000000e+00
1.320000000000000000e+03 0.000000000000000000e+00
1.321000000000000000e+03 0.000000000000000000e+00
1.322000000000000000e+03 0.000000000000000000e+00
1.323000000000000000e+03 0.000000000000000000e+00
1.324000000000000000e+03 0.000000000000000000e+00
1.325000000000000000e+03 0.000000000000000000e+00
1.326000000000000000e+03 0.000000000000000000e+00
1.327000000000000000e+03 0.000000000000000000e+00
1.328000000000000000e+03 0.000000000000000000e+00
1.329000000000000000e+03 0.000000000000000000e+00
1.330000000000000000e+03 0.000000000000000000e+00
1.331000000000000000e+03 0.000000000000000000e+00
1.332000000000000000e+03 0.000000000000000000e+00
1.333000000000000000e+03 0.000000000000000000e+00
1.334000000000000000e+03 0.000000000000000000e+00
1.335000000000000000e+03 0.000000000000000000e+00
1.336000000000000000e+03 0.000000000000000000e+00
1.337000000000000000e+03 0.000000000000000000e+00
1.338000000000000000e+03 0.000000000000000000e+00
1.339000000000000000e+03 0.000000000000000000e+00
1.340000000000000000e+03 0.000000000000000000e+00
1.341000000000000000e+03 0.000000000000000000e+00
1.342000000000000000e+03 0.000000000000000000e+00
1.343000000000000000e+03 0.000000000000000000e+00
1.344000000000000000e+03 0.000000000000000000e+00
1.345000000000000000e+03 0.000000000000000000e+00
1.346000000000000000e+03 0.000000000000000000e+00
1.347000000000000000e+03 0.000000000000000000e+00
1.348000000000000000e+03 0.000000000000000000e+00
1.349000000000000000e+03 0.000000000000000000e+00
1.350000000000000000e+03 0.000000000000000000e+00
1.351000000000000000e+03 0.000000000000000000e+00
1.352000000000000000e+03 0.000000000000000000e+00
1.353000000000000000e+03 0.000000000000000000e+00
1.354000000000000000e+03 0.000000000000000000e+00
1.355000000000000000e+03 0.000000000000000000e+00
1.356000000000000000e+03 0.000000000000000000e+00
1.357000000000000000e+03 0.000000000000000000e+00
1.358000000000000000e+03 0.000000000000000000e+00
1.359000000000000000e+03 0.000000000000000000e+00
1.360000000000000000e+03 0.000000000000000000e+00
1.361000000000000000e+03 0.000000000000000000e+00
1.362000000000000000e+03 0.000000000000000000e+00
1.363000000000000000e+03 0.000000000000000000e+00
1.364000000000000000e+03 0.000000000000000000e+00
1.365000000000000000e+03 0.000000000000000000e+00
1.366000000000000000e+03 0.000000000000000000e+00
1.367000000000000000e+03 0.000000000000000000e+00
1.368000000000000000e+03 0.000000000000000000e+00
1.369000000000000000e+03 0.000000000000000000e+00
1.370000000000000000e+03 0.000000000000000000e+00
1.371000000000000000e+03 0.000000000000000000e+00
1.372000000000000000e+03 0.000000000000000000e+00
1.373000000000000000e+03 0.000000000000000000e+00
1.374000000000000000e+03 0.000000000000000000e+00
1.375000000000000000e+03 0.000000000000000000e+00
1.376000000000000000e+03 0.000000000000000000e+00
1.377000000000000000e+03 0.000000000000000000e+00
1.378000000000000000e+03 0.000000000000000000e+00
1.379000000000000000e+03 0.000000000000000000e+00
1.380000000000000000e+03 0.000000000000000000e+00
1.381000000000000000e+03 0.000000000000000000e+00
1.382000000000000000e+03 0.000000000000000000e+00
1.383000000000000000e+03 0.000000000000000000e+00
1.384000000000000000e+03 0.000000000000000000e+00
1.385000000000000000e+03 0.000000000000000000e+00
1.386000000000000000e+03 0.000000000000000000e+00
1.387000000000000000e+03 0.000000000000000000e+00
1.388000000000000000e+03 0.000000000000000000e+00
1.389000000000000000e+03 0.000000000000000000e+00
1.390000000000000000e+03 0.000000000000000000e+00
1.391000000000000000e+03 0.000000000000000000e+00
1.392000000000000000e+03 0.000000000000000000e+00
1.393000000000000000e+03 0.000000000000000000e+00
1.394000000000000000e+03 0.000000000000000000e+00
1.395000000000000000e+03 0.000000000000000000e+00
1.396000000000000000e+03 0.000000000000000000e+00
1.397000000000000000e+03 0.000000000000000000e+00
1.398000000000000000e+03 0.000000000000000000e+00
1.399000000000000000e+03 0.000000000000000000e+00
1.400000000000000000e+03 0.000000000000000000e+00
1.401000000000000000e+03 0.000000000000000000e+00
1.402000000000000000e+03 0.000000000000000000e+00
1.403000000000000000e+03 0.000000000000000000e+00
1.404000000000000000e+03 0.000000000000000000e+00
1.405000000000000000e+03 0.000000000000000000e+00
1.406000000000000000e+03 0.000000000000000000e+00
1.407000000000000000e+03 0.000000000000000000e+00
1.408000000000000000e+03 0.000000000000000000e+00
1.409000000000000000e+03 0.000000000000000000e+00
1.410000000000000000e+03 0.000000000000000000e+00
1.411000000000000000e+03 0.000000000000000000e+00
1.412000000000000000e+03 0.000000000000000000e+00
1.413000000000000000e+03 0.000000000000000000e+00
1.414000000000000000e+03 0.000000000000000000e+00
1.415000000000000000e+03 0.000000000000000000e+00
1.416000000000000000e+03 0.000000000000000000e+00
1.417000000000000000e+03 0.000000000000000000e+00
1.418000000000000000e+03 0.000000000000000000e+00
1.419000000000000000e+03 0.000000000000000000e+00
1.420000000000000000e+03 0.000000000000000000e+00
1.421000000000000000e+03 0.000000000000000000e+00
1.422000000000000000e+03 0.000000000000000000e+00
1.423000000000000000e+03 0.000000000000000000e+00
1.424000000000000000e+03 0.000000000000000000e+00
1.425000000000000000e+03 0.000000000000000000e+00
1.426000000000000000e+03 0.000000000000000000e+00
1.427000000000000000e+03 0.000000000000000000e+00
1.428000000000000000e+03 0.000000000000000000e+00
1.429000000000000000e+03 0.000000000000000000e+00
1.430000000000000000e+03 0.000000000000000000e+00
1.431000000000000000e+03 0.000000000000000000e+00
1.432000000000000000e+03 0.000000000000000000e+00
1.433000000000000000e+03 0.000000000000000000e+00
1.434000000000000000e+03 0.000000000000000000e+00
1.435000000000000000e+03 0.000000000000000000e+00
1.436000000000000000e+03 0.000000000000000000e+00
1.437000000000000000e+03 0.000000000000000000e+00
1.438000000000000000e+03 0.000000000000000000e+00
1.439000000000000000e+03 0.000000000000000000e+00
1.440000000000000000e+03 0.000000000000000000e+00
1.441000000000000000e+03 0.000000000000000000e+00
1.442000000000000000e+03 0.000000000000000000e+00
1.443000000000000000e+03 0.000000000000000000e+00
1.444000000000000000e+03 0.000000000000000000e+00
1.445000000000000000e+03 0.000000000000000000e+00
1.446000000000000000e+03 0.000000000000000000e+00
1.447000000000000000e+03 0.000000000000000000e+00
1.448000000000000000e+03 0.000000000000000000e+00
1.449000000000000000e+03 0.000000000000000000e+00
1.450000000000000000e+03 0.000000000000000000e+00
1.451000000000000000e+03 0.000000000000000000e+00
1.452000000000000000e+03 0.000000000000000000e+00
1.453000000000000000e+03 0.000000000000000000e+00
1.454000000000000000e+03 0.000000000000000000e+00
1.455000000000000000e+03 0.000000000000000000e+00
1.456000000000000000e+03 0.000000000000000000e+00
1.457000000000000000e+03 0.000000000000000000e+00
1.458000000000000000e+03 0.000000000000000000e+00
1.459000000000000000e+03 0.000000000000000000e+00
1.460000000000000000e+03 0.000000000000000000e+00
1.461000000000000000e+03 0.000000000000000000e+00
1.462000000000000000e+03 0.000000000000000000e+00
1.463000000000000000e+03 0.000000000000000000e+00
1.464000000000000000e+03 0.000000000000000000e+00
1.465000000000000000e+03 0.000000000000000000e+00
1.466000000000000000e+03 0.000000000000000000e+00
1.467000000000000000e+03 0.000000000000000000e+00
1.468000000000000000e+03 0.000000000000000000e+00
1.469000000000000000e+03 0.000000000000000000e+00
1.470000000000000000e+03 0.000000000000000000e+00
1.471000000000000000e+03 0.000000000000000000e+00
1.472000000000000000e+03 0.000000000000000000e+00
1.473000000000000000e+03 0.000000000000000000e+00
1.474000000000000000e+03 0.000000000000000000e+00
1.475000000000000000e+03 0.000000000000000000e+00
1.476000000000000000e+03 0.000000000000000000e+00
1.477000000000000000e+03 0.000000000000000000e+00
1.478000000000000000e+03 0.000000000000000000e+00
1.479000000000000000e+03 0.000000000000000000e+00
1.480000000000000000e+03 0.000000000000000000e+00
1.481000000000000000e+03 0.000000000000000000e+00
1.482000000000000000e+03 0.000000000000000000e+00
1.483000000000000000e+03 0.000000000000000000e+00
1.484000000000000000e+03 0.000000000000000000e+00
1.485000000000000000e+03 0.000000000000000000e+00
1.486000000000000000e+03 0.000000000000000000e+00
1.487000000000000000e+03 0.000000000000000000e+00
1.488000000000000000e+03 0.000000000000000000e+00
1.489000000000000000e+03 0.000000000000000000e+00
1.490000000000000000e+03 0.000000000000000000e+00
1.491000000000000000e+03 0.000000000000000000e+00
1.492000000000000000e+03 0.000000000000000000e+00
1.493000000000000000e+03 0.000000000000000000e+00
1.494000000000000000e+03 0.000000000000000000e+00
1.495000000000000000e+03 0.000000000000000000e+00
1.496000000000000000e+03 0.000000000000000000e+00
1.497000000000000000e+03 0.000000000000000000e+00
1.498000000000000000e+03 0.000000000000000000e+00
1.499000000000000000e+03 0.000000000000000000e+00
1.500000000000000000e+03 0.000000000000000000e+00
