1.010000000000000000e+02 0.000000000000000000e+00
1.020000000000000000e+02 0.000000000000000000e+00
1.030000000000000000e+02 0.000000000000000000e+00
1.040000000000000000e+02 0.000000000000000000e+00
1.050000000000000000e+02 0.000000000000000000e+00
1.060000000000000000e+02 0.000000000000000000e+00
1.070000000000000000e+02 0.000000000000000000e+00
1.080000000000000000e+02 0.000000000000000000e+00
1.090000000000000000e+02 0.000000000000000000e+00
1.100000000000000000e+02 0.000000000000000000e+00
1.110000000000000000e+02 0.000000000000000000e+00
1.120000000000000000e+02 0.000000000000000000e+00
1.130000000000000000e+02 0.000000000000000000e+00
1.140000000000000000e+02 0.000000000000000000e+00
1.150000000000000000e+02 0.000000000000000000e+00
1.160000000000000000e+02 0.000000000000000000e+00
1.170000000000000000e+02 0.000000000000000000e+00
1.180000000000000000e+02 0.000000000000000000e+00
1.190000000000000000e+02 0.000000000000000000e+00
1.200000000000000000e+02 0.000000000000000000e+00
1.210000000000000000e+02 0.000000000000000000e+00
1.220000000000000000e+02 0.000000000000000000e+00
1.230000000000000000e+02 0.000000000000000000e+00
1.240000000000000000e+02 0.000000000000000000e+00
1.250000000000000000e+02 0.000000000000000000e+00
1.260000000000000000e+02 0.000000000000000000e+00
1.270000000000000000e+02 0.000000000000000000e+00
1.280000000000000000e+02 0.000000000000000000e+00
1.290000000000000000e+02 0.000000000000000000e+00
1.300000000000000000e+02 0.000000000000000000e+00
1.310000000000000000e+02 0.000000000000000000e+00
1.320000000000000000e+02 0.000000000000000000e+00
1.330000000000000000e+02 0.000000000000000000e+00
1.340000000000000000e+02 0.000000000000000000e+00
1.350000000000000000e+02 0.000000000000000000e+00
1.360000000000000000e+02 0.000000000000000000e+00
1.370000000000000000e+02 0.000000000000000000e+00
1.380000000000000000e+02 0.000000000000000000e+00
1.390000000000000000e+02 0.000000000000000000e+00
1.400000000000000000e+02 0.000000000000000000e+00
1.410000000000000000e+02 0.000000000000000000e+00
1.420000000000000000e+02 0.000000000000000000e+00
1.430000000000000000e+02 0.000000000000000000e+00
1.440000000000000000e+02 0.000000000000000000e+00
1.450000000000000000e+02 0.000000000000000000e+00
1.460000000000000000e+02 0.000000000000000000e+00
1.470000000000000000e+02 0.000000000000000000e+00
1.480000000000000000e+02 0.000000000000000000e+00
1.490000000000000000e+02 0.000000000000000000e+00
1.500000000000000000e+02 0.000000000000000000e+00
1.510000000000000000e+02 0.000000000000000000e+00
1.520000000000000000e+02 0.000000000000000000e+00
1.530000000000000000e+02 0.000000000000000000e+00
1.540000000000000000e+02 0.000000000000000000e+00
1.550000000000000000e+02 0.000000000000000000e+00
1.560000000000000000e+02 0.000000000000000000e+00
1.570000000000000000e+02 0.000000000000000000e+00
1.580000000000000000e+02 0.000000000000000000e+00
1.590000000000000000e+02 0.000000000000000000e+00
1.600000000000000000e+02 0.000000000000000000e+00
1.610000000000000000e+02 0.000000000000000000e+00
1.620000000000000000e+02 0.000000000000000000e+00
1.630000000000000000e+02 0.000000000000000000e+00
1.640000000000000000e+02 0.000000000000000000e+00
1.650000000000000000e+02 0.000000000000000000e+00
1.660000000000000000e+02 0.000000000000000000e+00
1.670000000000000000e+02 0.000000000000000000e+00
1.680000000000000000e+02 0.000000000000000000e+00
1.690000000000000000e+02 0.000000000000000000e+00
1.700000000000000000e+02 0.000000000000000000e+00
1.710000000000000000e+02 0.000000000000000000e+00
1.720000000000000000e+02 0.000000000000000000e+00
1.730000000000000000e+02 0.000000000000000000e+00
1.740000000000000000e+02 0.000000000000000000e+00
1.750000000000000000e+02 0.000000000000000000e+00
1.760000000000000000e+02 0.000000000000000000e+00
1.770000000000000000e+02 0.000000000000000000e+00
1.780000000000000000e+02 0.000000000000000000e+00
1.790000000000000000e+02 0.000000000000000000e+00
1.800000000000000000e+02 0.000000000000000000e+00
1.810000000000000000e+02 0.000000000000000000e+00
1.820000000000000000e+02 0.000000000000000000e+00
1.830000000000000000e+02 0.000000000000000000e+00
1.840000000000000000e+02 0.000000000000000000e+00
1.850000000000000000e+02 0.000000000000000000e+00
1.860000000000000000e+02 0.000000000000000000e+00
1.870000000000000000e+02 5.911924762497650754e+00
1.880000000000000000e+02 3.321799251814976373e+00
1.890000000000000000e+02 9.135617152872736568e+00
1.900000000000000000e+02 2.971972125700041190e+01
1.910000000000000000e+02 4.417801668326082876e+01
1.920000000000000000e+02 5.217352723086498401e+01
1.930000000000000000e+02 5.327976522189964470e+01
1.940000000000000000e+02 4.265210258245178920e+01
1.950000000000000000e+02 1.816096638456772610e+02
1.960000000000000000e+02 3.027524945861854349e+02
1.970000000000000000e+02 3.209944147687200484e+02
1.980000000000000000e+02 4.031662411740292669e+02
1.990000000000000000e+02 5.750328696950859921e+02
2.000000000000000000e+02 6.354010658369627436e+02
2.010000000000000000e+02 6.287171002903962744e+02
2.020000000000000000e+02 7.392998454262595942e+02
2.030000000000000000e+02 7.257251200788216465e+02
2.040000000000000000e+02 6.953888745488486620e+02
2.050000000000000000e+02 6.754732098942128005e+02
2.060000000000000000e+02 6.410398742584528691e+02
2.070000000000000000e+02 5.769920775980094731e+02
2.080000000000000000e+02 5.002228515453219302e+02
2.090000000000000000e+02 4.352877255133788026e+02
2.100000000000000000e+02 4.189070296557443953e+02
2.110000000000000000e+02 4.947930496577466215e+02
2.120000000000000000e+02 5.558923233561513371e+02
2.130000000000000000e+02 6.896643490045635190e+02
2.140000000000000000e+02 8.729474583696326135e+02
2.150000000000000000e+02 1.060467660651315555e+03
2.160000000000000000e+02 1.353269890087101658e+03
2.170000000000000000e+02 1.748919341215518671e+03
2.180000000000000000e+02 2.207857878033603811e+03
2.190000000000000000e+02 2.666193187888839930e+03
2.200000000000000000e+02 3.054096971790079806e+03
2.210000000000000000e+02 3.590626944202453615e+03
2.220000000000000000e+02 4.203637974071770259e+03
2.230000000000000000e+02 4.874454593652766562e+03
2.240000000000000000e+02 5.635755220908517913e+03
2.250000000000000000e+02 6.416822142916415942e+03
2.260000000000000000e+02 7.250310101638668129e+03
2.270000000000000000e+02 8.210128268560760262e+03
2.280000000000000000e+02 9.252082762912248654e+03
2.290000000000000000e+02 1.010902181601327538e+04
2.300000000000000000e+02 1.096234688096226091e+04
2.310000000000000000e+02 1.155899918689068545e+04
2.320000000000000000e+02 1.173414476042314891e+04
2.330000000000000000e+02 1.147945891538780234e+04
2.340000000000000000e+02 1.062418570835925311e+04
2.350000000000000000e+02 9.532571424185849537e+03
2.360000000000000000e+02 8.328112268616478104e+03
2.370000000000000000e+02 7.036020496577488302e+03
2.380000000000000000e+02 5.806577220078808750e+03
2.390000000000000000e+02 4.741036004563366077e+03
2.400000000000000000e+02 3.865661897324208894e+03
2.410000000000000000e+02 3.122728428126950803e+03
2.420000000000000000e+02 2.436648390790284793e+03
2.430000000000000000e+02 1.804716967434139178e+03
2.440000000000000000e+02 1.447820399709603862e+03
2.450000000000000000e+02 1.240904812487037816e+03
2.460000000000000000e+02 1.008141850217795081e+03
2.470000000000000000e+02 7.947545010578700158e+02
2.480000000000000000e+02 6.581572840696950379e+02
2.490000000000000000e+02 5.689879816220704924e+02
2.500000000000000000e+02 5.126901709249275427e+02
2.510000000000000000e+02 4.899501945239571228e+02
2.520000000000000000e+02 3.913726888612318362e+02
2.530000000000000000e+02 3.820114216507670903e+02
2.540000000000000000e+02 4.217671053101014991e+02
2.550000000000000000e+02 4.165239021157432830e+02
2.560000000000000000e+02 3.703483240978845288e+02
2.570000000000000000e+02 3.699283334785313286e+02
2.580000000000000000e+02 3.957169353246212609e+02
2.590000000000000000e+02 4.399786431771053117e+02
2.600000000000000000e+02 5.122933882389547762e+02
2.610000000000000000e+02 4.360077552997302632e+02
2.620000000000000000e+02 3.926780325451156841e+02
2.630000000000000000e+02 4.576120552582480627e+02
2.640000000000000000e+02 5.928099831362787882e+02
2.650000000000000000e+02 5.535878548848797891e+02
2.660000000000000000e+02 4.641908012445528584e+02
2.670000000000000000e+02 3.802363129018862651e+02
2.680000000000000000e+02 3.218476886330644788e+02
2.690000000000000000e+02 2.879676548226516388e+02
2.700000000000000000e+02 2.556854408006636277e+02
2.710000000000000000e+02 2.391835505496785856e+02
2.720000000000000000e+02 2.460302256378341781e+02
2.730000000000000000e+02 2.487315818917241472e+02
2.740000000000000000e+02 1.875661700062228761e+02
2.750000000000000000e+02 1.751032651939430878e+02
2.760000000000000000e+02 1.561210013272506671e+02
2.770000000000000000e+02 7.610156129848468254e+01
2.780000000000000000e+02 5.390771440572504503e+01
2.790000000000000000e+02 6.382072586478633980e+01
2.800000000000000000e+02 4.774389574984418516e+01
2.810000000000000000e+02 2.711498120282048774e+01
2.820000000000000000e+02 1.969970670607699503e+01
2.830000000000000000e+02 5.976420248911114896e+01
2.840000000000000000e+02 9.168340868311901204e+01
2.850000000000000000e+02 4.844561345986464573e+01
2.860000000000000000e+02 2.627783035677160228e+01
2.870000000000000000e+02 9.721420279552016552e+01
2.880000000000000000e+02 8.643287690105810839e+01
2.890000000000000000e+02 1.062413844721016432e+02
2.900000000000000000e+02 1.475142074258559077e+01
2.910000000000000000e+02 1.219785135013484165e+02
2.920000000000000000e+02 4.690954158680769126e+01
2.930000000000000000e+02 4.156974616677193524e+01
2.940000000000000000e+02 7.494594201825306357e+01
2.950000000000000000e+02 4.356035737606303826e+01
2.960000000000000000e+02 6.570133189794790951e+01
2.970000000000000000e+02 1.387198014312391479e+02
2.980000000000000000e+02 9.933402263845594860e+01
2.990000000000000000e+02 1.694924809168180673e+02
3.000000000000000000e+02 2.564643975108898530e+02
3.010000000000000000e+02 1.905775454262589506e+02
3.020000000000000000e+02 1.976032992532663854e+02
3.030000000000000000e+02 3.323082004770761841e+02
3.040000000000000000e+02 4.269166947739525995e+02
3.050000000000000000e+02 4.129114253266961896e+02
3.060000000000000000e+02 3.576115020535164035e+02
3.070000000000000000e+02 3.404972553504767916e+02
3.080000000000000000e+02 4.135431227546152400e+02
3.090000000000000000e+02 4.599628495955197991e+02
3.100000000000000000e+02 3.901990513479880178e+02
3.110000000000000000e+02 2.806771077162406414e+02
3.120000000000000000e+02 2.635987585563161701e+02
3.130000000000000000e+02 3.085620980920790544e+02
3.140000000000000000e+02 3.474535155154536028e+02
3.150000000000000000e+02 3.412713711885499492e+02
3.160000000000000000e+02 2.884704812072162667e+02
3.170000000000000000e+02 4.632570806264311614e+02
3.180000000000000000e+02 5.342728711055774511e+02
3.190000000000000000e+02 4.812744032150983458e+02
3.200000000000000000e+02 6.007508164281258587e+02
3.210000000000000000e+02 5.888945940261359056e+02
3.220000000000000000e+02 5.364656933001456309e+02
3.230000000000000000e+02 4.876323299108074707e+02
3.240000000000000000e+02 4.430409123210960729e+02
3.250000000000000000e+02 3.895355331051648591e+02
3.260000000000000000e+02 2.275200455922016545e+02
3.270000000000000000e+02 1.309421162207014788e+02
3.280000000000000000e+02 1.205223234183779510e+02
3.290000000000000000e+02 1.271225874299937431e+02
3.300000000000000000e+02 5.143408461634177087e+01
3.310000000000000000e+02 3.722711130885694075e+01
3.320000000000000000e+02 1.157426240448143062e+01
3.330000000000000000e+02 3.963500861468280334e+01
3.340000000000000000e+02 8.518864963907967081e+01
3.350000000000000000e+02 1.602227921634444030e+01
3.360000000000000000e+02 4.758008000000000237e+01
3.370000000000000000e+02 1.570100819746920706e+02
3.380000000000000000e+02 2.449142587429970490e+02
3.390000000000000000e+02 3.322032096640399459e+02
3.400000000000000000e+02 4.195457113254500996e+02
3.410000000000000000e+02 4.752656752126107449e+02
3.420000000000000000e+02 5.601825969099959366e+02
3.430000000000000000e+02 7.291952595519594524e+02
3.440000000000000000e+02 9.051236159717892633e+02
3.450000000000000000e+02 9.492988525617097366e+02
3.460000000000000000e+02 1.076526508815599527e+03
3.470000000000000000e+02 1.235219724331051566e+03
3.480000000000000000e+02 1.305949848786561461e+03
3.490000000000000000e+02 1.480780575191871094e+03
3.500000000000000000e+02 1.574932745956034523e+03
3.510000000000000000e+02 1.575762801700891714e+03
3.520000000000000000e+02 1.430525306160541732e+03
3.530000000000000000e+02 1.124601210952088877e+03
3.540000000000000000e+02 9.428621465463631921e+02
3.550000000000000000e+02 5.846153077162525733e+02
3.560000000000000000e+02 3.206489087741142043e+02
3.570000000000000000e+02 2.514664592408226440e+02
3.580000000000000000e+02 1.668662855868936390e+02
3.590000000000000000e+02 1.800207598630990447e+02
3.600000000000000000e+02 2.339219890686576946e+02
3.610000000000000000e+02 3.843780321443384764e+02
3.620000000000000000e+02 5.937704425637846271e+02
3.630000000000000000e+02 6.747472283758561389e+02
3.640000000000000000e+02 8.192388675445898798e+02
3.650000000000000000e+02 1.041426510329812118e+03
3.660000000000000000e+02 1.255370905413816899e+03
3.670000000000000000e+02 1.465248556615507823e+03
3.680000000000000000e+02 1.865594083177773427e+03
3.690000000000000000e+02 2.426873981746539357e+03
3.700000000000000000e+02 2.981602301597171390e+03
3.710000000000000000e+02 3.483058019290595439e+03
3.720000000000000000e+02 3.971727192491168353e+03
3.730000000000000000e+02 4.667985470649238778e+03
3.740000000000000000e+02 5.436559479153694156e+03
3.750000000000000000e+02 6.150178458618533114e+03
3.760000000000000000e+02 6.918002542003736380e+03
3.770000000000000000e+02 7.908675446587842089e+03
3.780000000000000000e+02 8.865784224227330924e+03
3.790000000000000000e+02 1.005504571043353462e+04
3.800000000000000000e+02 1.125259195395147071e+04
3.810000000000000000e+02 1.238563194358017063e+04
3.820000000000000000e+02 1.353785589711680223e+04
3.830000000000000000e+02 1.434894862269239820e+04
3.840000000000000000e+02 1.486301112401493265e+04
3.850000000000000000e+02 1.495131376477909726e+04
3.860000000000000000e+02 1.446046461937355161e+04
3.870000000000000000e+02 1.335723199502279931e+04
3.880000000000000000e+02 1.194000289773908662e+04
3.890000000000000000e+02 1.048450089607968584e+04
3.900000000000000000e+02 9.140180431356269764e+03
3.910000000000000000e+02 7.867275331051662761e+03
3.920000000000000000e+02 6.593918653806283146e+03
3.930000000000000000e+02 5.657550903981753436e+03
3.940000000000000000e+02 4.583696355320475050e+03
3.950000000000000000e+02 3.641636954366319515e+03
3.960000000000000000e+02 2.949418127333049142e+03
3.970000000000000000e+02 2.141256052478735000e+03
3.980000000000000000e+02 1.683806607965151898e+03
3.990000000000000000e+02 1.309938924704411193e+03
4.000000000000000000e+02 1.041402622381246829e+03
4.010000000000000000e+02 8.690027723501318633e+02
4.020000000000000000e+02 5.938183016801501708e+02
4.030000000000000000e+02 5.527022174237708896e+02
4.040000000000000000e+02 4.550309460485341333e+02
4.050000000000000000e+02 3.093673756896929490e+02
4.060000000000000000e+02 2.621055365276910152e+02
4.070000000000000000e+02 3.270355859365282640e+02
4.080000000000000000e+02 2.553579257622910745e+02
4.090000000000000000e+02 2.662037180253049087e+02
4.100000000000000000e+02 3.462182150176296318e+02
4.110000000000000000e+02 3.793766617299315840e+02
4.120000000000000000e+02 3.284354954573745431e+02
4.130000000000000000e+02 2.449702276648698103e+02
4.140000000000000000e+02 2.056734659199336193e+02
4.150000000000000000e+02 2.269079416096246860e+02
4.160000000000000000e+02 2.431970785358767273e+02
4.170000000000000000e+02 1.655508932171739787e+02
4.180000000000000000e+02 1.916603674341429269e+02
4.190000000000000000e+02 2.155816991704686814e+02
4.200000000000000000e+02 2.159842130056004805e+02
4.210000000000000000e+02 2.314621341766900002e+02
4.220000000000000000e+02 2.847021095830730815e+02
4.230000000000000000e+02 3.527780933623714077e+02
4.240000000000000000e+02 3.732688349719974781e+02
4.250000000000000000e+02 4.520350013897511303e+02
4.260000000000000000e+02 5.576627753578130751e+02
4.270000000000000000e+02 3.078787079651519889e+02
4.280000000000000000e+02 3.817638380626425487e+02
4.290000000000000000e+02 3.819593378137323043e+02
4.300000000000000000e+02 3.249489397427923336e+02
4.310000000000000000e+02 3.308313207218415641e+02
4.320000000000000000e+02 2.590737327525408773e+02
4.330000000000000000e+02 3.121079821613791978e+02
4.340000000000000000e+02 2.837237534121535418e+02
4.350000000000000000e+02 2.436188604231488739e+02
4.360000000000000000e+02 2.530450750466715704e+02
4.370000000000000000e+02 1.464032071561886710e+02
4.380000000000000000e+02 5.010828587722830463e+01
4.390000000000000000e+02 1.411491996058903453e+01
4.400000000000000000e+02 5.044892202240029633e+01
4.410000000000000000e+02 6.597903703028093503e+01
4.420000000000000000e+02 8.601890460485289225e+01
4.430000000000000000e+02 1.356714766023645211e+02
4.440000000000000000e+02 1.206550770427210324e+02
4.450000000000000000e+02 1.331403714374611695e+02
4.460000000000000000e+02 1.649518989628708141e+02
4.470000000000000000e+02 1.087259017005385999e+02
4.480000000000000000e+02 1.023025937149876086e+01
4.490000000000000000e+02 3.189683069072807697e+01
4.500000000000000000e+02 1.233065376047314601e+02
4.510000000000000000e+02 2.276416775150366902e+02
4.520000000000000000e+02 1.560895147272357235e+02
4.530000000000000000e+02 2.597606190831760955e+02
4.540000000000000000e+02 2.671052539514614637e+02
4.550000000000000000e+02 3.221055065754028419e+02
4.560000000000000000e+02 4.246118593860197166e+02
4.570000000000000000e+02 3.857979476042320925e+02
4.580000000000000000e+02 3.925090286869933038e+02
4.590000000000000000e+02 4.979578576228988140e+02
4.600000000000000000e+02 5.748413379174442071e+02
4.610000000000000000e+02 6.473700309894188649e+02
4.620000000000000000e+02 7.727897572080482860e+02
4.630000000000000000e+02 6.740296011823277240e+02
4.640000000000000000e+02 8.331763032565834237e+02
4.650000000000000000e+02 8.365399349512535991e+02
4.660000000000000000e+02 8.347444650902324383e+02
4.670000000000000000e+02 1.133250628577353154e+03
4.680000000000000000e+02 9.301197020535138336e+02
4.690000000000000000e+02 1.007602738353041332e+03
4.700000000000000000e+02 1.165238368726668568e+03
4.710000000000000000e+02 1.259171499481435376e+03
4.720000000000000000e+02 1.249568600497819489e+03
4.730000000000000000e+02 1.066922861883036830e+03
4.740000000000000000e+02 1.031640044803982164e+03
4.750000000000000000e+02 1.074427148931755710e+03
4.760000000000000000e+02 9.853993932807969713e+02
4.770000000000000000e+02 7.913100054760437843e+02
4.780000000000000000e+02 8.241420088985696566e+02
4.790000000000000000e+02 7.517730046048536678e+02
4.800000000000000000e+02 7.391235172578303718e+02
4.810000000000000000e+02 6.532424751089004076e+02
4.820000000000000000e+02 4.826968006222768395e+02
4.830000000000000000e+02 4.260755146442642740e+02
4.840000000000000000e+02 3.227335930304915905e+02
4.850000000000000000e+02 3.163357559842364140e+02
4.860000000000000000e+02 3.260113986932167904e+02
4.870000000000000000e+02 3.490433660858749363e+02
4.880000000000000000e+02 4.133924651109725801e+02
4.890000000000000000e+02 2.362268472308607272e+02
4.900000000000000000e+02 2.607763767268222637e+02
4.910000000000000000e+02 3.297610926571241521e+02
4.920000000000000000e+02 3.267895675238501099e+02
4.930000000000000000e+02 2.852864349927402827e+02
4.940000000000000000e+02 2.715637661688440971e+02
4.950000000000000000e+02 3.471647323517204313e+02
4.960000000000000000e+02 4.001431789670193098e+02
4.970000000000000000e+02 4.141396162207010434e+02
4.980000000000000000e+02 3.801229604313556933e+02
4.990000000000000000e+02 2.465946877826165746e+02
5.000000000000000000e+02 2.473499581829498482e+02
5.010000000000000000e+02 3.483637800290361497e+02
5.020000000000000000e+02 2.418435037958864768e+02
5.030000000000000000e+02 4.168845031528613987e+01
5.040000000000000000e+02 2.463273306511785563e+02
5.050000000000000000e+02 2.225072298070940064e+02
5.060000000000000000e+02 2.673856244555077524e+02
5.070000000000000000e+02 1.959376792989037028e+02
5.080000000000000000e+02 1.107046509479330609e+02
5.090000000000000000e+02 2.317552813939030329e+02
5.100000000000000000e+02 1.287946489110144057e+02
5.110000000000000000e+02 2.567976798174631767e+02
5.120000000000000000e+02 2.900861106824324906e+02
5.130000000000000000e+02 2.487684404687819892e+02
5.140000000000000000e+02 3.300191564405702138e+02
5.150000000000000000e+02 4.634847122588680577e+02
5.160000000000000000e+02 4.495808361750672475e+02
5.170000000000000000e+02 4.887342401783864716e+02
5.180000000000000000e+02 5.236115691829115804e+02
5.190000000000000000e+02 5.073060501555693804e+02
5.200000000000000000e+02 5.225566872018257527e+02
5.210000000000000000e+02 5.918900120282041826e+02
5.220000000000000000e+02 6.270432139805020597e+02
5.230000000000000000e+02 6.618989197884258147e+02
5.240000000000000000e+02 6.631398231231850104e+02
5.250000000000000000e+02 6.024147308027380632e+02
5.260000000000000000e+02 6.454801109313419829e+02
5.270000000000000000e+02 6.648386794276233331e+02
5.280000000000000000e+02 6.446269049782201819e+02
5.290000000000000000e+02 5.395348091682232052e+02
5.300000000000000000e+02 4.004153644131059195e+02
5.310000000000000000e+02 4.321213432068034876e+02
5.320000000000000000e+02 3.678185046048541267e+02
5.330000000000000000e+02 2.619929014934656379e+02
5.340000000000000000e+02 2.506806719560254351e+02
5.350000000000000000e+02 3.112399577680980656e+02
5.360000000000000000e+02 3.251832363824934760e+02
5.370000000000000000e+02 4.414982617921590418e+02
5.380000000000000000e+02 3.547936024891128568e+02
5.390000000000000000e+02 2.850692469197261971e+02
5.400000000000000000e+02 3.166361023646541639e+02
5.410000000000000000e+02 3.344456283136283332e+02
5.420000000000000000e+02 2.799187886123213502e+02
5.430000000000000000e+02 2.708399273179836655e+02
5.440000000000000000e+02 3.280972418377911026e+02
5.450000000000000000e+02 2.986493683675595889e+02
5.460000000000000000e+02 2.362795649657728916e+02
5.470000000000000000e+02 3.810571124637082221e+02
5.480000000000000000e+02 3.374886788010783221e+02
5.490000000000000000e+02 3.783968848786565218e+02
5.500000000000000000e+02 3.800347251762770497e+02
5.510000000000000000e+02 3.593806579340377994e+02
5.520000000000000000e+02 4.014431937564815485e+02
5.530000000000000000e+02 3.785254093322289464e+02
5.540000000000000000e+02 2.359740068450562944e+02
5.550000000000000000e+02 1.910234929060355000e+02
5.560000000000000000e+02 1.659533057237674143e+02
5.570000000000000000e+02 7.747699946069509735e+01
5.580000000000000000e+02 1.991630811657429234e+01
5.590000000000000000e+02 1.266834858742982703e+02
5.600000000000000000e+02 2.409321864965772590e+02
5.610000000000000000e+02 9.928981261149432669e+01
5.620000000000000000e+02 6.979577411325367109e+01
5.630000000000000000e+02 1.229441782825144287e+02
5.640000000000000000e+02 1.426629523335406589e+02
5.650000000000000000e+02 1.058293198506521691e+02
5.660000000000000000e+02 7.885259758141421571e+01
5.670000000000000000e+02 3.547023418792770144e+01
5.680000000000000000e+02 7.916339601949917437e+01
5.690000000000000000e+02 9.590233478532159239e+00
5.700000000000000000e+02 5.114890061605855465e+01
5.710000000000000000e+02 1.175634037544058685e+02
5.720000000000000000e+02 8.933947391205524013e+01
5.730000000000000000e+02 1.015902569763421148e+01
5.740000000000000000e+02 5.670940665214606469e+01
5.750000000000000000e+02 8.002813344741763046e+01
5.760000000000000000e+02 6.057698855246847813e+01
5.770000000000000000e+02 1.732807664136071324e+01
5.780000000000000000e+02 8.543472883011804697e+01
5.790000000000000000e+02 1.432815362505180303e+02
5.800000000000000000e+02 5.230449197469157241e+01
5.810000000000000000e+02 4.559954168429894850e+01
5.820000000000000000e+02 5.258921000434894921e+01
5.830000000000000000e+02 1.404918270068473589e+02
5.840000000000000000e+02 4.507005978011990521e+01
5.850000000000000000e+02 1.056289890313180138e+02
5.860000000000000000e+02 2.618339723916196604e+01
5.870000000000000000e+02 5.578577702201014787e+00
5.880000000000000000e+02 3.845501645301647642e+01
5.890000000000000000e+02 1.566289433312536516e+02
5.900000000000000000e+02 2.729836656159270660e+02
5.910000000000000000e+02 2.493182967848995872e+02
5.920000000000000000e+02 2.093121854387060239e+02
5.930000000000000000e+02 1.572085066362503483e+02
5.940000000000000000e+02 2.316561310309085968e+02
5.950000000000000000e+02 3.357323604646349509e+02
5.960000000000000000e+02 3.267580278515112013e+02
5.970000000000000000e+02 2.205541939016769390e+02
5.980000000000000000e+02 2.223639506533901340e+02
5.990000000000000000e+02 3.267559277743167172e+02
6.000000000000000000e+02 3.377434086271245519e+02
6.010000000000000000e+02 3.658751469404642762e+02
6.020000000000000000e+02 4.914625807716212762e+02
6.030000000000000000e+02 5.869490067814147096e+02
6.040000000000000000e+02 7.330783549263633176e+02
6.050000000000000000e+02 6.328596440365088256e+02
6.060000000000000000e+02 7.171111222314393672e+02
6.070000000000000000e+02 9.055195341630369512e+02
6.080000000000000000e+02 9.452661085666885583e+02
6.090000000000000000e+02 1.136620407922029472e+03
6.100000000000000000e+02 1.269340751503840920e+03
6.110000000000000000e+02 1.354939551960176459e+03
6.120000000000000000e+02 1.533239090418926253e+03
6.130000000000000000e+02 1.746469509437880106e+03
6.140000000000000000e+02 1.863223372744252174e+03
6.150000000000000000e+02 2.074783929475207515e+03
6.160000000000000000e+02 2.164514867454883188e+03
6.170000000000000000e+02 2.203353748599877235e+03
6.180000000000000000e+02 2.295932466915575333e+03
6.190000000000000000e+02 2.417018574154738417e+03
6.200000000000000000e+02 2.466027092719351913e+03
6.210000000000000000e+02 2.517272854387057123e+03
6.220000000000000000e+02 2.482227626426052211e+03
6.230000000000000000e+02 2.370356385812071949e+03
6.240000000000000000e+02 2.162821696535981118e+03
6.250000000000000000e+02 1.958033033602983551e+03
6.260000000000000000e+02 1.953490641642470109e+03
6.270000000000000000e+02 1.844681635760209019e+03
6.280000000000000000e+02 1.641890727027581306e+03
6.290000000000000000e+02 1.397625654914967299e+03
6.300000000000000000e+02 1.291909429993779668e+03
6.310000000000000000e+02 1.322221168222358074e+03
6.320000000000000000e+02 1.198090188303605601e+03
6.330000000000000000e+02 1.125905239576852864e+03
6.340000000000000000e+02 1.013304163534533700e+03
6.350000000000000000e+02 8.956507362090388824e+02
6.360000000000000000e+02 8.070523538477496004e+02
6.370000000000000000e+02 7.541910887367766918e+02
6.380000000000000000e+02 7.321858250103686032e+02
6.390000000000000000e+02 6.238290149968862579e+02
6.400000000000000000e+02 6.869835214893186048e+02
6.410000000000000000e+02 6.760154658784449566e+02
6.420000000000000000e+02 6.249030280854610737e+02
6.430000000000000000e+02 6.239801612943347209e+02
6.440000000000000000e+02 3.400857001244517051e+02
6.450000000000000000e+02 3.741505434557161607e+02
6.460000000000000000e+02 4.704490307819957593e+02
6.470000000000000000e+02 4.720063992325228241e+02
6.480000000000000000e+02 4.886109261356577349e+02
6.490000000000000000e+02 5.610687016179215334e+02
6.500000000000000000e+02 3.696122392449713061e+02
6.510000000000000000e+02 3.503534965567305903e+02
6.520000000000000000e+02 4.245386540759175773e+02
6.530000000000000000e+02 3.913630097697560473e+02
6.540000000000000000e+02 3.402860273179840647e+02
6.550000000000000000e+02 4.819620190584810757e+02
6.560000000000000000e+02 7.092358420867043378e+02
6.570000000000000000e+02 5.777592573739890440e+02
6.580000000000000000e+02 5.333287500207381981e+02
6.590000000000000000e+02 6.055619888819750258e+02
6.600000000000000000e+02 6.447523472516076026e+02
6.610000000000000000e+02 6.214791977810036769e+02
6.620000000000000000e+02 6.505808299315494878e+02
6.630000000000000000e+02 7.524322195602561578e+02
6.640000000000000000e+02 8.012079274574865622e+02
6.650000000000000000e+02 9.758345216137719262e+02
6.660000000000000000e+02 1.232492372121963399e+03
6.670000000000000000e+02 1.364642451773491302e+03
6.680000000000000000e+02 1.553015164903549021e+03
6.690000000000000000e+02 1.883579010991286395e+03
6.700000000000000000e+02 2.100354058286662166e+03
6.710000000000000000e+02 2.365181260112005475e+03
6.720000000000000000e+02 2.717840602239731652e+03
6.730000000000000000e+02 3.092429063472305188e+03
6.740000000000000000e+02 3.758509063679724022e+03
6.750000000000000000e+02 4.275266983409369459e+03
6.760000000000000000e+02 4.893217534536396670e+03
6.770000000000000000e+02 5.644568026757919142e+03
6.780000000000000000e+02 6.448211520945659686e+03
6.790000000000000000e+02 7.268081125285199050e+03
6.800000000000000000e+02 8.144446429993757192e+03
6.810000000000000000e+02 9.044423018046050856e+03
6.820000000000000000e+02 9.774856141879279676e+03
6.830000000000000000e+02 1.064571828458825985e+04
6.840000000000000000e+02 1.153371042314871556e+04
6.850000000000000000e+02 1.207395762289982486e+04
6.860000000000000000e+02 1.247658818502386202e+04
6.870000000000000000e+02 1.266750993154946991e+04
6.880000000000000000e+02 1.276783415266542033e+04
6.890000000000000000e+02 1.260661738021158635e+04
6.900000000000000000e+02 1.209166225886746906e+04
6.910000000000000000e+02 1.133963225886747750e+04
6.920000000000000000e+02 1.050581166148105513e+04
6.930000000000000000e+02 9.406127836755887984e+03
6.940000000000000000e+02 8.470480276291247719e+03
6.950000000000000000e+02 7.597191235586915354e+03
6.960000000000000000e+02 6.741044208877829988e+03
6.970000000000000000e+02 5.947540930927197223e+03
6.980000000000000000e+02 5.261237763376191651e+03
6.990000000000000000e+02 4.695358240821397885e+03
7.000000000000000000e+02 4.288973257622894380e+03
7.010000000000000000e+02 3.922914815014530632e+03
7.020000000000000000e+02 3.568306339763546930e+03
7.030000000000000000e+02 3.280708467330420717e+03
7.040000000000000000e+02 3.083894239527173795e+03
7.050000000000000000e+02 2.898329139390175442e+03
7.060000000000000000e+02 2.702899345571468075e+03
7.070000000000000000e+02 2.426506138975325030e+03
7.080000000000000000e+02 2.206809696950843318e+03
7.090000000000000000e+02 2.090657150176316463e+03
7.100000000000000000e+02 2.022570158888196147e+03
7.110000000000000000e+02 2.121955331673927958e+03
7.120000000000000000e+02 1.798474478531429668e+03
7.130000000000000000e+02 1.616818660236464893e+03
7.140000000000000000e+02 1.504138555693837588e+03
7.150000000000000000e+02 1.343933293714995671e+03
7.160000000000000000e+02 1.248340605061189308e+03
7.170000000000000000e+02 1.216246189172367622e+03
7.180000000000000000e+02 9.371939573739792877e+02
7.190000000000000000e+02 8.442006441817056839e+02
7.200000000000000000e+02 8.043639940053897135e+02
7.210000000000000000e+02 7.002628394027310605e+02
7.220000000000000000e+02 5.309416140634857584e+02
7.230000000000000000e+02 3.033239313420412486e+02
7.240000000000000000e+02 4.915207301119847898e+02
7.250000000000000000e+02 3.745057309686816325e+02
7.260000000000000000e+02 4.214423260734243968e+02
7.270000000000000000e+02 3.902595866860244769e+02
7.280000000000000000e+02 1.570374769342455750e+02
7.290000000000000000e+02 1.798555144990669419e+02
7.300000000000000000e+02 3.706276546661167117e+02
7.310000000000000000e+02 3.403965089607937671e+02
7.320000000000000000e+02 1.374684684712651119e+02
7.330000000000000000e+02 1.685309518871584089e+01
7.340000000000000000e+02 8.654707757311399519e+00
7.350000000000000000e+02 5.871964541381935021e+00
7.360000000000000000e+02 1.822006584940913498e+01
7.370000000000000000e+02 5.433857083593677473e+00
7.380000000000000000e+02 4.332395944836326152e+01
7.390000000000000000e+02 1.382822127193481094e+02
7.400000000000000000e+02 4.034510367959535415e+01
7.410000000000000000e+02 9.413376027380205358e+01
7.420000000000000000e+02 9.029588697780536677e+01
7.430000000000000000e+02 4.437183539443859104e+01
7.440000000000000000e+02 6.426417343289267592e+01
7.450000000000000000e+02 3.009817209707547292e+01
7.460000000000000000e+02 2.802332274782368771e+01
7.470000000000000000e+02 9.170315647376344259e+01
7.480000000000000000e+02 9.214566717278302121e+01
7.490000000000000000e+02 3.133292935074987184e+01
7.500000000000000000e+02 5.381148301182838622e+01
7.510000000000000000e+02 1.021093692824499186e+02
7.520000000000000000e+02 1.309551163244127849e+02
7.530000000000000000e+02 9.197818264260163801e+01
7.540000000000000000e+02 1.526350375155509482e+02
7.550000000000000000e+02 1.095032367392654038e+02
7.560000000000000000e+02 2.806060236880305752e+02
7.570000000000000000e+02 1.735607508502677661e+02
7.580000000000000000e+02 5.977590584940769247e+01
7.590000000000000000e+02 1.332456627255778017e+02
7.600000000000000000e+02 2.456309837204495921e+02
7.610000000000000000e+02 2.301180967849020078e+02
7.620000000000000000e+02 3.089592824725171454e+02
7.630000000000000000e+02 3.356832202032771306e+02
7.640000000000000000e+02 2.966778014934656653e+02
7.650000000000000000e+02 3.692739202240228451e+02
7.660000000000000000e+02 4.596893450114083066e+02
7.670000000000000000e+02 4.661304707114711050e+02
7.680000000000000000e+02 4.468100448039811567e+02
7.690000000000000000e+02 2.963264988799024877e+02
7.700000000000000000e+02 1.172085412528541042e+02
7.710000000000000000e+02 9.123164596971517426e+01
7.720000000000000000e+02 2.308716701929081978e+02
7.730000000000000000e+02 2.902031345364027857e+02
7.740000000000000000e+02 1.467638351171947306e+02
7.750000000000000000e+02 1.016597622692397778e+02
7.760000000000000000e+02 1.737856635552807063e+02
7.770000000000000000e+02 2.999101350269602335e+02
7.780000000000000000e+02 1.719930295830691875e+02
7.790000000000000000e+02 1.010797961211381448e+02
7.800000000000000000e+02 1.625053676897539106e+02
7.810000000000000000e+02 6.357431344949130647e+01
7.820000000000000000e+02 6.987429159925316924e+01
7.830000000000000000e+02 1.760560273123167718e+01
7.840000000000000000e+02 8.967979481849834400e+00
7.850000000000000000e+02 2.449060871603407108e+01
7.860000000000000000e+02 6.441371710493635305e+01
7.870000000000000000e+02 1.304560070068452546e+02
7.880000000000000000e+02 2.065194316739264195e+02
7.890000000000000000e+02 9.492336505704082583e+01
7.900000000000000000e+02 1.855550556523556338e+01
7.910000000000000000e+02 1.445802953951451570e+02
7.920000000000000000e+02 2.223231611076535046e+02
7.930000000000000000e+02 7.713876555735336638e+01
7.940000000000000000e+02 1.061956452603195658e+02
7.950000000000000000e+02 3.302081140427270611e+01
7.960000000000000000e+02 1.399397186060978413e+02
7.970000000000000000e+02 1.257439826177150621e+02
7.980000000000000000e+02 1.219933186060983701e+02
7.990000000000000000e+02 1.277207544285419090e+02
8.000000000000000000e+02 7.823984945861995755e+01
8.010000000000000000e+02 6.242909194772995107e+00
8.020000000000000000e+02 2.627662128396546493e+01
8.030000000000000000e+02 1.422432368311894209e+02
8.040000000000000000e+02 1.255059484131925132e+02
8.050000000000000000e+02 1.246316644679532430e+02
8.060000000000000000e+02 1.457330025715469901e+02
8.070000000000000000e+02 1.416114483509646789e+02
8.080000000000000000e+02 7.426413798797267418e+01
8.090000000000000000e+02 8.102421924512526630e+01
8.100000000000000000e+02 2.533670276291351087e+01
8.110000000000000000e+02 1.453364029910768807e+02
8.120000000000000000e+02 2.565955518042293875e+02
8.130000000000000000e+02 2.624219059323799570e+02
8.140000000000000000e+02 1.794104322339791224e+02
8.150000000000000000e+02 1.334409250777831630e+02
8.160000000000000000e+02 2.858692285625395471e+02
8.170000000000000000e+02 1.734128655880534495e+02
8.180000000000000000e+02 1.394055736361752906e+02
8.190000000000000000e+02 1.413532835096452800e+02
8.200000000000000000e+02 1.890460303464024037e+02
8.210000000000000000e+02 2.484875409251197880e+02
8.220000000000000000e+02 2.222373748185028148e+02
8.230000000000000000e+02 2.341490419415047199e+02
8.240000000000000000e+02 9.068840651524949692e+01
8.250000000000000000e+02 1.298931829495918464e+02
8.260000000000000000e+02 9.117992229206284094e+01
8.270000000000000000e+02 7.057171978220118547e+01
8.280000000000000000e+02 1.553360149346583796e+02
8.290000000000000000e+02 1.564317895271696557e+02
8.300000000000000000e+02 1.030176672993146951e+02
8.310000000000000000e+02 1.751784399294744787e+02
8.320000000000000000e+02 1.466790496059731197e+02
8.330000000000000000e+02 2.011456716241450522e+02
8.340000000000000000e+02 2.124982504252223237e+02
8.350000000000000000e+02 1.180833249688922422e+02
8.360000000000000000e+02 1.437064511097300112e+02
8.370000000000000000e+02 1.893827378344736587e+02
8.380000000000000000e+02 5.283813145168559089e+01
8.390000000000000000e+02 1.469819760630496432e+02
8.400000000000000000e+02 1.952166756689463227e+02
8.410000000000000000e+02 1.837118320406466410e+02
8.420000000000000000e+02 1.817213758556341645e+02
8.430000000000000000e+02 1.517276287077349366e+02
8.440000000000000000e+02 2.162776646546334405e+02
8.450000000000000000e+02 3.077982476664599290e+02
8.460000000000000000e+02 1.510271603858165577e+02
8.470000000000000000e+02 1.187713534536403017e+02
8.480000000000000000e+02 1.470073805641983711e+02
8.490000000000000000e+02 1.178123860817258048e+02
8.500000000000000000e+02 7.139591847334321528e+01
8.510000000000000000e+02 9.409529655257067304e+00
8.520000000000000000e+02 2.662235493258711472e+02
8.530000000000000000e+02 1.214373892138445967e+02
8.540000000000000000e+02 3.354797152041630426e+00
8.550000000000000000e+02 1.368303464952389277e+02
8.560000000000000000e+02 2.912597408836349473e+02
8.570000000000000000e+02 2.672427801286023623e+02
8.580000000000000000e+02 2.190874332227259629e+02
8.590000000000000000e+02 1.279872465256205203e+02
8.600000000000000000e+02 1.222447228375866146e+01
8.610000000000000000e+02 1.283148909746946060e+02
8.620000000000000000e+02 3.416626855424171936e+02
8.630000000000000000e+02 3.348817737606323135e+02
8.640000000000000000e+02 1.393538730609695904e+02
8.650000000000000000e+02 8.045499969508367144e+01
8.660000000000000000e+02 8.588279845675185697e+01
8.670000000000000000e+02 7.771366588552423593e+01
8.680000000000000000e+02 9.925756483509778150e+01
8.690000000000000000e+02 1.866545786558881304e+01
8.700000000000000000e+02 1.543634796889100613e+01
8.710000000000000000e+02 7.795396594689724168e+01
8.720000000000000000e+02 6.060887053930998292e+01
8.730000000000000000e+02 1.765861464219015318e+02
8.740000000000000000e+02 2.119716590541381152e+02
8.750000000000000000e+02 1.906672146027784436e+02
8.760000000000000000e+02 8.555612440365248972e+01
8.770000000000000000e+02 1.793328934536363022e+02
8.780000000000000000e+02 2.057199563783489111e+02
8.790000000000000000e+02 4.356634990665901341e+01
8.800000000000000000e+02 6.938959006845470867e+01
8.810000000000000000e+02 1.118336210122382965e+02
8.820000000000000000e+02 2.759372645250818579e+01
8.830000000000000000e+02 1.406967604231565474e+02
8.840000000000000000e+02 1.742996113876729964e+02
8.850000000000000000e+02 7.422552924097904281e+01
8.860000000000000000e+02 6.473070354491071043e+01
8.870000000000000000e+02 5.993244803360845196e+01
8.880000000000000000e+02 2.414191879303219537e+02
8.890000000000000000e+02 1.636448153702575041e+02
8.900000000000000000e+02 3.913936611491580209e+01
8.910000000000000000e+02 1.980530322998744097e+01
8.920000000000000000e+02 1.262601490333961749e+02
8.930000000000000000e+02 1.722590489732418746e+02
8.940000000000000000e+02 8.059727394856756177e+01
8.950000000000000000e+02 1.127925179174453518e+02
8.960000000000000000e+02 1.301289107695482130e+02
8.970000000000000000e+02 1.534051847749455355e+01
8.980000000000000000e+02 9.699723427505515971e+00
8.990000000000000000e+02 8.401538271727987706e+01
9.000000000000000000e+02 1.066416008297009768e+02
9.010000000000000000e+02 3.747679498859039882e+01
9.020000000000000000e+02 9.775697393279537906e+00
9.030000000000000000e+02 4.161641969508347927e+01
9.040000000000000000e+02 5.074038197262002114e+01
9.050000000000000000e+02 1.257077284173414427e+02
9.060000000000000000e+02 1.070683863887161777e+02
9.070000000000000000e+02 1.396752424704414182e+02
9.080000000000000000e+02 1.894755706077577599e+02
9.090000000000000000e+02 8.513739541173723069e+01
9.100000000000000000e+02 2.294325819539595201e+01
9.110000000000000000e+02 1.668531142264620541e+02
9.120000000000000000e+02 1.159654196017417860e+02
9.130000000000000000e+02 1.913585161377314137e+02
9.140000000000000000e+02 2.952593027167153537e+02
9.150000000000000000e+02 2.801501837792976630e+02
9.160000000000000000e+02 1.557913267579339163e+02
9.170000000000000000e+02 8.173198648693484358e+01
9.180000000000000000e+02 1.620243099771841742e+02
9.190000000000000000e+02 3.996330561501757188e+02
9.200000000000000000e+02 3.934078844877638517e+02
9.210000000000000000e+02 3.698919252644679432e+02
9.220000000000000000e+02 3.242079249118444864e+02
9.230000000000000000e+02 3.295818889234606672e+02
9.240000000000000000e+02 3.787983020535158971e+02
9.250000000000000000e+02 3.368448094586185562e+02
9.260000000000000000e+02 3.396779490976975353e+02
9.270000000000000000e+02 3.282316110765401049e+02
9.280000000000000000e+02 3.467717958514826364e+02
9.290000000000000000e+02 3.655284574569591314e+02
9.300000000000000000e+02 4.044319075295576340e+02
9.310000000000000000e+02 5.082808723501315740e+02
9.320000000000000000e+02 5.471345457581417122e+02
9.330000000000000000e+02 4.191328742377108370e+02
9.340000000000000000e+02 4.722184064094574296e+02
9.350000000000000000e+02 4.687792546359677317e+02
9.360000000000000000e+02 5.745272794648404897e+02
9.370000000000000000e+02 5.576056039610142534e+02
9.380000000000000000e+02 4.510343739887983361e+02
9.390000000000000000e+02 4.121377542626016179e+02
9.400000000000000000e+02 4.741703452509323142e+02
9.410000000000000000e+02 4.617526100394129003e+02
9.420000000000000000e+02 3.484877777017218250e+02
9.430000000000000000e+02 4.547442613645771416e+02
9.440000000000000000e+02 3.144837799626669721e+02
9.450000000000000000e+02 3.359482420866993380e+02
9.460000000000000000e+02 3.792467321858156879e+02
9.470000000000000000e+02 3.273350523957696510e+02
9.480000000000000000e+02 2.297225940883683961e+02
9.490000000000000000e+02 1.084936962256336130e+02
9.500000000000000000e+02 3.288109881144982296e+02
9.510000000000000000e+02 3.215991723086501679e+02
9.520000000000000000e+02 3.099045785936527295e+02
9.530000000000000000e+02 2.048281881767268260e+02
9.540000000000000000e+02 2.392962946276703917e+02
9.550000000000000000e+02 2.839553230035230058e+02
9.560000000000000000e+02 2.136246475420047091e+02
9.570000000000000000e+02 2.728356347853152784e+02
9.580000000000000000e+02 3.067208327940256254e+02
9.590000000000000000e+02 2.977060342252655687e+02
9.600000000000000000e+02 2.286942198713924199e+02
9.610000000000000000e+02 1.128540309479402453e+02
9.620000000000000000e+02 1.287723130304868278e+02
9.630000000000000000e+02 1.591499535877271114e+02
9.640000000000000000e+02 4.826315025928276015e+01
9.650000000000000000e+02 6.076246192284103387e+01
9.660000000000000000e+02 1.286261583367864887e+02
9.670000000000000000e+02 2.094679377722464437e+02
9.680000000000000000e+02 1.180665745073640522e+02
9.690000000000000000e+02 1.609586070510165143e+02
9.700000000000000000e+02 2.101679060568344823e+02
9.710000000000000000e+02 5.609802063596380606e+01
9.720000000000000000e+02 1.024116922895057513e+02
9.730000000000000000e+02 3.874806912258866731e+01
9.740000000000000000e+02 1.950118947106466862e+02
9.750000000000000000e+02 3.115353839070887147e+02
9.760000000000000000e+02 2.862037796515273840e+02
9.770000000000000000e+02 3.494989216759997817e+02
9.780000000000000000e+02 1.400079433250458862e+02
9.790000000000000000e+02 3.534787639700771678e+01
9.800000000000000000e+02 1.712064039203448829e+02
9.810000000000000000e+02 2.453420047293088828e+02
9.820000000000000000e+02 2.588045958307405954e+02
9.830000000000000000e+02 2.228463490769562156e+02
9.840000000000000000e+02 9.776191166770288987e+01
9.850000000000000000e+02 1.509486231487251757e+02
9.860000000000000000e+02 1.825940458411116936e+02
9.870000000000000000e+02 1.038057750134790496e+02
9.880000000000000000e+02 1.048612512507809527e+02
9.890000000000000000e+02 2.007963734909784819e+02
9.900000000000000000e+02 1.599036220161691233e+02
9.910000000000000000e+02 2.174017211574592423e+01
9.920000000000000000e+02 1.330578059311557411e+02
9.930000000000000000e+02 3.224313372744209687e+02
9.940000000000000000e+02 3.001386136901019199e+02
9.950000000000000000e+02 2.607076235586890220e+02
9.960000000000000000e+02 1.263921754822707015e+02
9.970000000000000000e+02 3.503080783115291297e+01
9.980000000000000000e+02 1.656733825798419559e+02
9.990000000000000000e+02 2.161766970752958059e+02
1.000000000000000000e+03 2.944855904998963183e+02
1.001000000000000000e+03 8.387165107884443671e+01
1.002000000000000000e+03 2.843385419917095902e+01
1.003000000000000000e+03 6.163408373443819244e+01
1.004000000000000000e+03 2.015757958506248144e+02
1.005000000000000000e+03 1.279113983817447604e+02
1.006000000000000000e+03 2.818475640993547771e+01
1.007000000000000000e+03 1.041908739419151004e+02
1.008000000000000000e+03 2.645647784232407957e+02
1.009000000000000000e+03 2.343294336929208654e+01
1.010000000000000000e+03 1.074849697095409624e+02
1.011000000000000000e+03 7.045560757261289098e+01
1.012000000000000000e+03 1.202633148755206349e+02
1.013000000000000000e+03 6.471333584025521191e+01
1.014000000000000000e+03 3.309892026970774737e+01
1.015000000000000000e+03 1.838879012448130936e+02
1.016000000000000000e+03 1.056416647302900742e+02
1.017000000000000000e+03 2.762018390041519069e+02
1.018000000000000000e+03 2.487214867220330916e+01
1.019000000000000000e+03 2.012646582987641253e+01
1.020000000000000000e+03 1.024160047717810897e+02
1.021000000000000000e+03 1.898115016597529916e+02
1.022000000000000000e+03 2.578799782157664140e+02
1.023000000000000000e+03 1.805763033194999139e+02
1.024000000000000000e+03 6.527802278008375936e+01
1.025000000000000000e+03 2.177953526971014639e+02
1.026000000000000000e+03 2.022981340248986157e+02
1.027000000000000000e+03 7.061830571428842518e+01
1.028000000000000000e+03 4.732072064315410387e+01
1.029000000000000000e+03 5.825851790456535895e+01
1.030000000000000000e+03 2.106119165974966450e+02
1.031000000000000000e+03 2.705983240663873062e+02
1.032000000000000000e+03 1.201991156846332416e+02
1.033000000000000000e+03 3.035856207467403678e+01
1.034000000000000000e+03 1.347909460580929419e+02
1.035000000000000000e+03 9.784954728779085542e+01
1.036000000000000000e+03 3.005333379668062435e+02
1.037000000000000000e+03 1.683045004149456929e+02
1.038000000000000000e+03 3.122436026970991065e+02
1.039000000000000000e+03 3.938604601659697551e+02
1.040000000000000000e+03 3.255252701244857576e+02
1.041000000000000000e+03 2.254886315352709403e+02
1.042000000000000000e+03 1.447012651452272394e+02
1.043000000000000000e+03 1.980734373444055052e+02
1.044000000000000000e+03 2.598826796680509688e+02
1.045000000000000000e+03 2.178953840248960603e+02
1.046000000000000000e+03 2.293546721991702668e+02
1.047000000000000000e+03 2.130260086956543546e+02
1.048000000000000000e+03 1.764240742738588494e+02
1.049000000000000000e+03 2.462600941908821710e+02
1.050000000000000000e+03 3.549817601659759134e+02
1.051000000000000000e+03 3.566330892116200175e+02
1.052000000000000000e+03 3.698699601659805580e+02
1.053000000000000000e+03 4.971241582987601646e+02
1.054000000000000000e+03 3.874932771784293664e+02
1.055000000000000000e+03 4.696689128630701475e+02
1.056000000000000000e+03 6.401016913043617933e+02
1.057000000000000000e+03 4.831836112033424797e+02
1.058000000000000000e+03 4.146906489626525172e+02
1.059000000000000000e+03 5.003973145228222847e+02
1.060000000000000000e+03 5.170223568464737127e+02
1.061000000000000000e+03 5.418954408713667590e+02
1.062000000000000000e+03 6.092332128630716852e+02
1.063000000000000000e+03 6.908187124481354431e+02
1.064000000000000000e+03 6.876674028985512450e+02
1.065000000000000000e+03 7.253692701244808632e+02
1.066000000000000000e+03 7.210728639004132674e+02
1.067000000000000000e+03 6.849742958506242303e+02
1.068000000000000000e+03 7.111548286307014450e+02
1.069000000000000000e+03 7.674941450207478510e+02
1.070000000000000000e+03 8.094535622406681341e+02
1.071000000000000000e+03 8.444586630705424568e+02
1.072000000000000000e+03 8.640969449275305578e+02
1.073000000000000000e+03 1.173964053941903558e+03
1.074000000000000000e+03 9.174361829875808780e+02
1.075000000000000000e+03 7.804865742738577410e+02
1.076000000000000000e+03 9.094341267080806119e+02
1.077000000000000000e+03 1.085920860995850035e+03
1.078000000000000000e+03 1.217275767634846261e+03
1.079000000000000000e+03 1.266698890041493996e+03
1.080000000000000000e+03 1.267887412863076634e+03
1.081000000000000000e+03 1.376740809128631554e+03
1.082000000000000000e+03 1.203216273858925661e+03
1.083000000000000000e+03 1.193863004149378867e+03
1.084000000000000000e+03 1.290233941908723864e+03
1.085000000000000000e+03 1.350460786307054605e+03
1.086000000000000000e+03 1.293561114107883213e+03
1.087000000000000000e+03 1.387018771784251157e+03
1.088000000000000000e+03 1.492871049792542863e+03
1.089000000000000000e+03 1.385327261410788878e+03
1.090000000000000000e+03 1.353932784232364611e+03
1.091000000000000000e+03 1.346307846473029031e+03
1.092000000000000000e+03 1.340651385892116423e+03
1.093000000000000000e+03 1.352217447204969403e+03
1.094000000000000000e+03 1.478267854771795101e+03
1.095000000000000000e+03 1.392900255186737695e+03
1.096000000000000000e+03 1.470736643153522664e+03
1.097000000000000000e+03 1.455377964803301893e+03
1.098000000000000000e+03 1.267790896265568335e+03
1.099000000000000000e+03 1.169966568464737747e+03
1.100000000000000000e+03 1.013182603734437748e+03
1.101000000000000000e+03 9.484498680497964642e+02
1.102000000000000000e+03 1.047549917012449214e+03
1.103000000000000000e+03 9.634440377593364246e+02
1.104000000000000000e+03 1.040842867219921345e+03
1.105000000000000000e+03 9.834390383022767992e+02
1.106000000000000000e+03 7.380013659751118666e+02
1.107000000000000000e+03 6.444179356846494784e+02
1.108000000000000000e+03 6.034891261410616607e+02
1.109000000000000000e+03 4.519481639004214912e+02
1.110000000000000000e+03 4.481753319502075783e+02
1.111000000000000000e+03 4.389126877593328118e+02
1.112000000000000000e+03 2.749272207468893612e+02
1.113000000000000000e+03 2.899832285714284126e+02
1.114000000000000000e+03 2.600579966804936589e+02
1.115000000000000000e+03 1.394908887966763302e+02
1.116000000000000000e+03 1.598059858921090495e+02
1.117000000000000000e+03 1.690358314699780919e+02
1.118000000000000000e+03 1.329138321576829185e+02
1.119000000000000000e+03 1.408967441908772571e+02
1.120000000000000000e+03 9.614459483402453088e+01
1.121000000000000000e+03 1.891163721991753448e+02
1.122000000000000000e+03 3.202342238095177436e+02
1.123000000000000000e+03 2.699065991701291409e+02
1.124000000000000000e+03 4.805013780082568076e+01
1.125000000000000000e+03 4.467208946058157437e+01
1.126000000000000000e+03 3.950195649377668161e+01
1.127000000000000000e+03 6.527574080912840770e+01
1.128000000000000000e+03 4.229008116182335897e+01
1.129000000000000000e+03 6.388862802904557014e+01
1.130000000000000000e+03 4.740433564315436854e+01
1.131000000000000000e+03 4.535997423236703696e+01
1.132000000000000000e+03 9.379499481327765409e+01
1.133000000000000000e+03 2.020481146473453649e+01
1.134000000000000000e+03 6.601936391304357699e+01
1.135000000000000000e+03 1.227044618256643815e+01
1.136000000000000000e+03 6.903180551866833525e+01
1.137000000000000000e+03 8.684104087142586081e+00
1.138000000000000000e+03 1.259690379667996396e+01
1.139000000000000000e+03 1.809266427386068870e+02
1.140000000000000000e+03 2.574220045643254480e+02
1.141000000000000000e+03 1.434148576763486460e+02
1.142000000000000000e+03 2.227105084886119926e+02
1.143000000000000000e+03 1.761295773858972211e+02
1.144000000000000000e+03 1.305713923236515654e+02
1.145000000000000000e+03 1.668680975103752644e+02
1.146000000000000000e+03 1.845756242236028299e+02
1.147000000000000000e+03 1.019543684647357367e+02
1.148000000000000000e+03 1.147485490871385423e+02
1.149000000000000000e+03 1.189303282157615484e+02
1.150000000000000000e+03 1.035132699585017519e+02
1.151000000000000000e+03 1.109976074534167196e+02
1.152000000000000000e+03 1.015077066391642546e+01
1.153000000000000000e+03 2.264055764148909873e+02
1.154000000000000000e+03 1.736036784232272225e+02
1.155000000000000000e+03 1.966796624066229811e+02
1.156000000000000000e+03 9.374472863069736661e+01
1.157000000000000000e+03 7.594475908711443424e+01
1.158000000000000000e+03 6.942769390041355848e+01
1.159000000000000000e+03 1.289545634854864318e+02
1.160000000000000000e+03 6.464392450207557772e+01
1.161000000000000000e+03 1.823300454356822513e+02
1.162000000000000000e+03 1.552810705394223305e+02
1.163000000000000000e+03 5.470998788820149628e+01
1.164000000000000000e+03 3.074763726140973858e+02
1.165000000000000000e+03 7.375000000000000000e+01
1.166000000000000000e+03 1.097728572614139750e+02
1.167000000000000000e+03 1.527148689440928990e+02
1.168000000000000000e+03 2.399711856846467413e+02
1.169000000000000000e+03 1.015923408091213105e+02
1.170000000000000000e+03 6.759517902489814389e+01
1.171000000000000000e+03 8.221365258799778530e+01
1.172000000000000000e+03 8.970698970954616414e+01
1.173000000000000000e+03 2.236559709543617771e+02
1.174000000000000000e+03 2.372808070539439598e+02
1.175000000000000000e+03 1.987504737060044988e+02
1.176000000000000000e+03 1.841205734439822947e+02
1.177000000000000000e+03 1.126326207468929397e+02
1.178000000000000000e+03 2.100079831950147877e+02
1.179000000000000000e+03 9.711661343685261727e+01
1.180000000000000000e+03 1.198980941908776146e+02
1.181000000000000000e+03 1.839053029045633707e+02
1.182000000000000000e+03 1.676567659751045483e+02
1.183000000000000000e+03 1.317348614107878575e+02
1.184000000000000000e+03 1.258012506224066271e+02
1.185000000000000000e+03 1.302799831950200655e+02
1.186000000000000000e+03 1.365139684647299703e+02
1.187000000000000000e+03 1.028434181535238707e+02
1.188000000000000000e+03 8.064413908713622448e+01
1.189000000000000000e+03 1.560437286307052887e+02
1.190000000000000000e+03 2.903689369294673384e+02
1.191000000000000000e+03 1.593385497925519303e+02
1.192000000000000000e+03 2.642368580912842049e+02
1.193000000000000000e+03 2.056534358921077512e+02
1.194000000000000000e+03 1.063027302904609996e+02
1.195000000000000000e+03 1.229824565560234078e+02
1.196000000000000000e+03 8.723415188405780896e+01
1.197000000000000000e+03 1.213376157676317320e+02
1.198000000000000000e+03 4.479598560167083576e+01
1.199000000000000000e+03 3.498860232365153422e+01
1.200000000000000000e+03 7.554908881988330904e+01
1.201000000000000000e+03 2.902728688796607344e+02
1.202000000000000000e+03 3.000326132780122066e+02
1.203000000000000000e+03 1.724406537344390813e+02
1.204000000000000000e+03 3.029333134575838358e+02
1.205000000000000000e+03 1.826671908713938137e+02
1.206000000000000000e+03 1.253488838174229869e+02
1.207000000000000000e+03 2.395207141078768416e+02
1.208000000000000000e+03 8.835824952379996944e+01
1.209000000000000000e+03 6.839290176347644490e+01
1.210000000000000000e+03 1.892713676348495540e+02
1.211000000000000000e+03 6.389952265560460631e+01
1.212000000000000000e+03 5.473333518671046249e+01
1.213000000000000000e+03 1.026319877178422644e+02
1.214000000000000000e+03 1.538919045643189065e+02
1.215000000000000000e+03 2.117580962655582084e+02
1.216000000000000000e+03 1.837605937759366839e+02
1.217000000000000000e+03 1.053903945020713877e+02
1.218000000000000000e+03 1.236716073029120935e+02
1.219000000000000000e+03 1.702397952282184974e+02
1.220000000000000000e+03 1.352470394190874288e+02
1.221000000000000000e+03 1.388292987551927808e+02
1.222000000000000000e+03 1.703068804979342872e+02
1.223000000000000000e+03 9.482225634854562202e+01
1.224000000000000000e+03 1.628435369294600150e+02
1.225000000000000000e+03 5.885032668737093076e+01
1.226000000000000000e+03 6.866940398339853857e+01
1.227000000000000000e+03 1.711610128630709937e+02
1.228000000000000000e+03 1.622657340248922537e+02
1.229000000000000000e+03 1.340264130434783567e+02
1.230000000000000000e+03 3.243309269709486671e+02
1.231000000000000000e+03 3.862689759336048496e+02
1.232000000000000000e+03 1.872595975103551496e+02
1.233000000000000000e+03 9.975538981327724741e+01
1.234000000000000000e+03 1.274671556016607781e+02
1.235000000000000000e+03 1.535350269709488202e+02
1.236000000000000000e+03 1.173669371369188923e+02
1.237000000000000000e+03 2.569436944099366542e+02
1.238000000000000000e+03 2.415637738589198875e+02
1.239000000000000000e+03 2.525594323651453976e+02
1.240000000000000000e+03 2.513264219917018067e+02
1.241000000000000000e+03 2.471273492753626329e+02
1.242000000000000000e+03 3.483148643153696753e+02
1.243000000000000000e+03 3.493655321576840151e+02
1.244000000000000000e+03 1.327036655601694122e+02
1.245000000000000000e+03 9.991745224067318532e+01
1.246000000000000000e+03 2.766500954357100568e+02
1.247000000000000000e+03 1.443312987551795459e+02
1.248000000000000000e+03 2.616429999999900247e+02
1.249000000000000000e+03 6.709053821577046506e+01
1.250000000000000000e+03 3.060639221990676262e+01
1.251000000000000000e+03 2.166236226141081147e+02
1.252000000000000000e+03 1.603520987551808616e+02
1.253000000000000000e+03 2.125750408713696515e+02
1.254000000000000000e+03 1.391961427385918455e+02
1.255000000000000000e+03 2.381603153527078689e+02
1.256000000000000000e+03 2.018488207468643054e+02
1.257000000000000000e+03 1.017906519502037526e+02
1.258000000000000000e+03 1.011641956846459607e+02
1.259000000000000000e+03 1.013140277385966783e+02
1.260000000000000000e+03 2.604674838174270235e+02
1.261000000000000000e+03 2.229494682572673980e+02
1.262000000000000000e+03 9.968371452282951850e+01
1.263000000000000000e+03 2.750746813278058767e+02
1.264000000000000000e+03 3.311440049792501554e+02
1.265000000000000000e+03 3.869839356846470650e+02
1.266000000000000000e+03 1.734501811594074923e+02
1.267000000000000000e+03 3.065334253111827820e+02
1.268000000000000000e+03 3.249507296680516220e+02
1.269000000000000000e+03 1.658897966804903490e+02
1.270000000000000000e+03 2.196362695652063053e+02
1.271000000000000000e+03 3.534396037344372417e+02
1.272000000000000000e+03 2.997878634854739630e+02
1.273000000000000000e+03 2.195208000000097002e+02
1.274000000000000000e+03 2.857072434782681967e+02
1.275000000000000000e+03 2.487154485477182106e+02
1.276000000000000000e+03 3.364394051867112694e+02
1.277000000000000000e+03 1.571924719917059861e+02
1.278000000000000000e+03 1.854995495850639031e+02
1.279000000000000000e+03 7.111436493775752865e+01
1.280000000000000000e+03 2.098827402489582710e+02
1.281000000000000000e+03 3.149192788381719765e+02
1.282000000000000000e+03 3.122212950207470499e+02
1.283000000000000000e+03 4.248332089211776861e+02
1.284000000000000000e+03 4.558721340249038576e+02
1.285000000000000000e+03 3.009794601659803561e+02
1.286000000000000000e+03 1.842845292531095822e+02
1.287000000000000000e+03 2.044977153526870950e+02
1.288000000000000000e+03 2.411644858921222294e+02
1.289000000000000000e+03 1.667433219917021745e+02
1.290000000000000000e+03 2.411509871369282507e+02
1.291000000000000000e+03 2.305081363070464704e+02
1.292000000000000000e+03 3.590733217842313820e+02
1.293000000000000000e+03 3.381667977178404385e+02
1.294000000000000000e+03 3.391130670124483117e+02
1.295000000000000000e+03 2.585740585921375327e+02
1.296000000000000000e+03 1.946681161825717368e+02
1.297000000000000000e+03 1.804558585062239615e+02
1.298000000000000000e+03 1.288837709543634560e+02
1.299000000000000000e+03 6.864766095238093158e+01
1.300000000000000000e+03 9.783885539419611632e+01
1.301000000000000000e+03 1.289711019709631898e+02
1.302000000000000000e+03 1.154017514522763008e+02
1.303000000000000000e+03 1.702871809523779802e+02
1.304000000000000000e+03 3.819751435684426610e+01
1.305000000000000000e+03 3.646878298754381831e+01
1.306000000000000000e+03 1.374338224066395071e+02
1.307000000000000000e+03 1.694693492070060969e+01
1.308000000000000000e+03 1.416395268049603260e+02
1.309000000000000000e+03 2.091521495850615509e+02
1.310000000000000000e+03 2.647825993775948064e+02
1.311000000000000000e+03 1.174742044398125245e+02
1.312000000000000000e+03 2.714198651451991395e+01
1.313000000000000000e+03 2.559057568464695365e+01
1.314000000000000000e+03 9.397623427386444916e+01
1.315000000000000000e+03 0.000000000000000000e+00
1.316000000000000000e+03 0.000000000000000000e+00
1.317000000000000000e+03 0.000000000000000000e+00
1.318000000000000000e+03 0.000000000000000000e+00
1.319000000000000000e+03 0.000000000000000000e+00
1.320000000000000000e+03 0.000000000000000000e+00
1.321000000000000000e+03 0.000000000000000000e+00
1.322000000000000000e+03 0.000000000000000000e+00
1.323000000000000000e+03 0.000000000000000000e+00
1.324000000000000000e+03 0.000000000000000000e+00
1.325000000000000000e+03 0.000000000000000000e+00
1.326000000000000000e+03 0.000000000000000000e+00
1.327000000000000000e+03 0.000000000000000000e+00
1.328000000000000000e+03 0.000000000000000000e+00
1.329000000000000000e+03 0.000000000000000000e+00
1.330000000000000000e+03 0.000000000000000000e+00
1.331000000000000000e+03 0.000000000000000000e+00
1.332000000000000000e+03 0.000000000000000000e+00
1.333000000000000000e+03 0.000000000000000000e+00
1.334000000000000000e+03 0.000000000000000000e+00
1.335000000000000000e+03 0.000000000000000000e+00
1.336000000000000000e+03 0.000000000000000000e+00
1.337000000000000000e+03 0.000000000000000000e+00
1.338000000000000000e+03 0.000000000000000000e+00
1.339000000000000000e+03 0.000000000000000000e+00
1.340000000000000000e+03 0.000000000000000000e+00
1.341000000000000000e+03 0.000000000000000000e+00
1.342000000000000000e+03 0.000000000000000000e+00
1.343000000000000000e+03 0.000000000000000000e+00
1.344000000000000000e+03 0.000000000000000000e+00
1.345000000000000000e+03 0.000000000000000000e+00
1.346000000000000000e+03 0.000000000000000000e+00
1.347000000000000000e+03 0.000000000000000000e+00
1.348000000000000000e+03 0.000000000000000000e+00
1.349000000000000000e+03 0.000000000000000000e+00
1.350000000000000000e+03 0.000000000000000000e+00
1.351000000000000000e+03 0.000000000000000000e+00
1.352000000000000000e+03 0.000000000000000000e+00
1.353000000000000000e+03 0.000000000000000000e+00
1.354000000000000000e+03 0.000000000000000000e+00
1.355000000000000000e+03 0.000000000000000000e+00
1.356000000000000000e+03 0.000000000000000000e+00
1.357000000000000000e+03 0.000000000000000000e+00
1.358000000000000000e+03 0.000000000000000000e+00
1.359000000000000000e+03 0.000000000000000000e+00
1.360000000000000000e+03 0.000000000000000000e+00
1.361000000000000000e+03 0.000000000000000000e+00
1.362000000000000000e+03 0.000000000000000000e+00
1.363000000000000000e+03 0.000000000000000000e+00
1.364000000000000000e+03 0.000000000000000000e+00
1.365000000000000000e+03 0.000000000000000000e+00
1.366000000000000000e+03 0.000000000000000000e+00
1.367000000000000000e+03 0.000000000000000000e+00
1.368000000000000000e+03 0.000000000000000000e+00
1.369000000000000000e+03 0.000000000000000000e+00
1.370000000000000000e+03 0.000000000000000000e+00
1.371000000000000000e+03 0.000000000000000000e+00
1.372000000000000000e+03 0.000000000000000000e+00
1.373000000000000000e+03 0.000000000000000000e+00
1.374000000000000000e+03 0.000000000000000000e+00
1.375000000000000000e+03 0.000000000000000000e+00
1.376000000000000000e+03 0.000000000000000000e+00
1.377000000000000000e+03 0.000000000000000000e+00
1.378000000000000000e+03 0.000000000000000000e+00
1.379000000000000000e+03 0.000000000000000000e+00
1.380000000000000000e+03 0.000000000000000000e+00
1.381000000000000000e+03 0.000000000000000000e+00
1.382000000000000000e+03 0.000000000000000000e+00
1.383000000000000000e+03 0.000000000000000000e+00
1.384000000000000000e+03 0.000000000000000000e+00
1.385000000000000000e+03 0.000000000000000000e+00
1.386000000000000000e+03 0.000000000000000000e+00
1.387000000000000000e+03 0.000000000000000000e+00
1.388000000000000000e+03 0.000000000000000000e+00
1.389000000000000000e+03 0.000000000000000000e+00
1.390000000000000000e+03 0.000000000000000000e+00
1.391000000000000000e+03 0.000000000000000000e+00
1.392000000000000000e+03 0.000000000000000000e+00
1.393000000000000000e+03 0.000000000000000000e+00
1.394000000000000000e+03 0.000000000000000000e+00
1.395000000000000000e+03 0.000000000000000000e+00
1.396000000000000000e+03 0.000000000000000000e+00
1.397000000000000000e+03 0.000000000000000000e+00
1.398000000000000000e+03 0.000000000000000000e+00
1.399000000000000000e+03 0.000000000000000000e+00
1.400000000000000000e+03 0.000000000000000000e+00
1.401000000000000000e+03 0.000000000000000000e+00
1.402000000000000000e+03 0.000000000000000000e+00
1.403000000000000000e+03 0.000000000000000000e+00
1.404000000000000000e+03 0.000000000000000000e+00
1.405000000000000000e+03 0.000000000000000000e+00
1.406000000000000000e+03 0.000000000000000000e+00
1.407000000000000000e+03 0.000000000000000000e+00
1.408000000000000000e+03 0.000000000000000000e+00
1.409000000000000000e+03 0.000000000000000000e+00
1.410000000000000000e+03 0.000000000000000000e+00
1.411000000000000000e+03 0.000000000000000000e+00
1.412000000000000000e+03 0.000000000000000000e+00
1.413000000000000000e+03 0.000000000000000000e+00
1.414000000000000000e+03 0.000000000000000000e+00
1.415000000000000000e+03 0.000000000000000000e+00
1.416000000000000000e+03 0.000000000000000000e+00
1.417000000000000000e+03 0.000000000000000000e+00
1.418000000000000000e+03 0.000000000000000000e+00
1.419000000000000000e+03 0.000000000000000000e+00
1.420000000000000000e+03 0.000000000000000000e+00
1.421000000000000000e+03 0.000000000000000000e+00
1.422000000000000000e+03 0.000000000000000000e+00
1.423000000000000000e+03 0.000000000000000000e+00
1.424000000000000000e+03 0.000000000000000000e+00
1.425000000000000000e+03 0.000000000000000000e+00
1.426000000000000000e+03 0.000000000000000000e+00
1.427000000000000000e+03 0.000000000000000000e+00
1.428000000000000000e+03 0.000000000000000000e+00
1.429000000000000000e+03 0.000000000000000000e+00
1.430000000000000000e+03 0.000000000000000000e+00
1.431000000000000000e+03 0.000000000000000000e+00
1.432000000000000000e+03 0.000000000000000000e+00
1.433000000000000000e+03 0.000000000000000000e+00
1.434000000000000000e+03 0.000000000000000000e+00
1.435000000000000000e+03 0.000000000000000000e+00
1.436000000000000000e+03 0.000000000000000000e+00
1.437000000000000000e+03 0.000000000000000000e+00
1.438000000000000000e+03 0.000000000000000000e+00
1.439000000000000000e+03 0.000000000000000000e+00
1.440000000000000000e+03 0.000000000000000000e+00
1.441000000000000000e+03 0.000000000000000000e+00
1.442000000000000000e+03 0.000000000000000000e+00
1.443000000000000000e+03 0.000000000000000000e+00
1.444000000000000000e+03 0.000000000000000000e+00
1.445000000000000000e+03 0.000000000000000000e+00
1.446000000000000000e+03 0.000000000000000000e+00
1.447000000000000000e+03 0.000000000000000000e+00
1.448000000000000000e+03 0.000000000000000000e+00
1.449000000000000000e+03 0.000000000000000000e+00
1.450000000000000000e+03 0.000000000000000000e+00
1.451000000000000000e+03 0.000000000000000000e+00
1.452000000000000000e+03 0.000000000000000000e+00
1.453000000000000000e+03 0.000000000000000000e+00
1.454000000000000000e+03 0.000000000000000000e+00
1.455000000000000000e+03 0.000000000000000000e+00
1.456000000000000000e+03 0.000000000000000000e+00
1.457000000000000000e+03 0.000000000000000000e+00
1.458000000000000000e+03 0.000000000000000000e+00
1.459000000000000000e+03 0.000000000000000000e+00
1.460000000000000000e+03 0.000000000000000000e+00
1.461000000000000000e+03 0.000000000000000000e+00
1.462000000000000000e+03 0.000000000000000000e+00
1.463000000000000000e+03 0.000000000000000000e+00
1.464000000000000000e+03 0.000000000000000000e+00
1.465000000000000000e+03 0.000000000000000000e+00
1.466000000000000000e+03 0.000000000000000000e+00
1.467000000000000000e+03 0.000000000000000000e+00
1.468000000000000000e+03 0.000000000000000000e+00
1.469000000000000000e+03 0.000000000000000000e+00
1.470000000000000000e+03 0.000000000000000000e+00
1.471000000000000000e+03 0.000000000000000000e+00
1.472000000000000000e+03 0.000000000000000000e+00
1.473000000000000000e+03 0.000000000000000000e+00
1.474000000000000000e+03 0.000000000000000000e+00
1.475000000000000000e+03 0.000000000000000000e+00
1.476000000000000000e+03 0.000000000000000000e+00
1.477000000000000000e+03 0.000000000000000000e+00
1.478000000000000000e+03 0.000000000000000000e+00
1.479000000000000000e+03 0.000000000000000000e+00
1.480000000000000000e+03 0.000000000000000000e+00
1.481000000000000000e+03 0.000000000000000000e+00
1.482000000000000000e+03 0.000000000000000000e+00
1.483000000000000000e+03 0.000000000000000000e+00
1.484000000000000000e+03 0.000000000000000000e+00
1.485000000000000000e+03 0.000000000000000000e+00
1.486000000000000000e+03 0.000000000000000000e+00
1.487000000000000000e+03 0.000000000000000000e+00
1.488000000000000000e+03 0.000000000000000000e+00
1.489000000000000000e+03 0.000000000000000000e+00
1.490000000000000000e+03 0.000000000000000000e+00
1.491000000000000000e+03 0.000000000000000000e+00
1.492000000000000000e+03 0.000000000000000000e+00
1.493000000000000000e+03 0.000000000000000000e+00
1.494000000000000000e+03 0.000000000000000000e+00
1.495000000000000000e+03 0.000000000000000000e+00
1.496000000000000000e+03 0.000000000000000000e+00
1.497000000000000000e+03 0.000000000000000000e+00
1.498000000000000000e+03 0.000000000000000000e+00
1.499000000000000000e+03 0.000000000000000000e+00
1.500000000000000000e+03 0.000000000000000000e+00
