1.010000000000000000e+02 0.000000000000000000e+00
1.020000000000000000e+02 0.000000000000000000e+00
1.030000000000000000e+02 0.000000000000000000e+00
1.040000000000000000e+02 0.000000000000000000e+00
1.050000000000000000e+02 0.000000000000000000e+00
1.060000000000000000e+02 0.000000000000000000e+00
1.070000000000000000e+02 0.000000000000000000e+00
1.080000000000000000e+02 0.000000000000000000e+00
1.090000000000000000e+02 0.000000000000000000e+00
1.100000000000000000e+02 0.000000000000000000e+00
1.110000000000000000e+02 0.000000000000000000e+00
1.120000000000000000e+02 0.000000000000000000e+00
1.130000000000000000e+02 0.000000000000000000e+00
1.140000000000000000e+02 0.000000000000000000e+00
1.150000000000000000e+02 0.000000000000000000e+00
1.160000000000000000e+02 0.000000000000000000e+00
1.170000000000000000e+02 0.000000000000000000e+00
1.180000000000000000e+02 0.000000000000000000e+00
1.190000000000000000e+02 0.000000000000000000e+00
1.200000000000000000e+02 0.000000000000000000e+00
1.210000000000000000e+02 0.000000000000000000e+00
1.220000000000000000e+02 0.000000000000000000e+00
1.230000000000000000e+02 0.000000000000000000e+00
1.240000000000000000e+02 0.000000000000000000e+00
1.250000000000000000e+02 0.000000000000000000e+00
1.260000000000000000e+02 0.000000000000000000e+00
1.270000000000000000e+02 0.000000000000000000e+00
1.280000000000000000e+02 0.000000000000000000e+00
1.290000000000000000e+02 0.000000000000000000e+00
1.300000000000000000e+02 0.000000000000000000e+00
1.310000000000000000e+02 0.000000000000000000e+00
1.320000000000000000e+02 0.000000000000000000e+00
1.330000000000000000e+02 0.000000000000000000e+00
1.340000000000000000e+02 0.000000000000000000e+00
1.350000000000000000e+02 0.000000000000000000e+00
1.360000000000000000e+02 0.000000000000000000e+00
1.370000000000000000e+02 0.000000000000000000e+00
1.380000000000000000e+02 0.000000000000000000e+00
1.390000000000000000e+02 0.000000000000000000e+00
1.400000000000000000e+02 0.000000000000000000e+00
1.410000000000000000e+02 0.000000000000000000e+00
1.420000000000000000e+02 0.000000000000000000e+00
1.430000000000000000e+02 0.000000000000000000e+00
1.440000000000000000e+02 0.000000000000000000e+00
1.450000000000000000e+02 0.000000000000000000e+00
1.460000000000000000e+02 0.000000000000000000e+00
1.470000000000000000e+02 0.000000000000000000e+00
1.480000000000000000e+02 4.523136146826978177e+00
1.490000000000000000e+02 1.233887825762284152e+01
1.500000000000000000e+02 4.743346957685027121e+00
1.510000000000000000e+02 7.221900954159288233e-01
1.520000000000000000e+02 2.671448863721206379e+01
1.530000000000000000e+02 9.036699641568073105e+01
1.540000000000000000e+02 1.472600097075296333e+02
1.550000000000000000e+02 1.510234588259697261e+02
1.560000000000000000e+02 1.557512560049782167e+02
1.570000000000000000e+02 1.763651645301802375e+02
1.580000000000000000e+02 1.706297276913502401e+02
1.590000000000000000e+02 1.072904867994187867e+02
1.600000000000000000e+02 9.404635735532046681e+01
1.610000000000000000e+02 3.270320520016576893e+02
1.620000000000000000e+02 4.784536179215927518e+02
1.630000000000000000e+02 3.837319473553193347e+02
1.640000000000000000e+02 1.635690405102672855e+02
1.650000000000000000e+02 1.249395231854002191e+02
1.660000000000000000e+02 1.092364246878247656e+02
1.670000000000000000e+02 4.551821085874207995e+01
1.680000000000000000e+02 9.729391891746164589e+00
1.690000000000000000e+02 2.951041588052256515e+01
1.700000000000000000e+02 8.114775327525389059e+01
1.710000000000000000e+02 8.915166435918706611e+01
1.720000000000000000e+02 6.158168037958906638e+01
1.730000000000000000e+02 2.285965005393068950e+01
1.740000000000000000e+02 3.558767613438381261e+01
1.750000000000000000e+02 6.974470479568515202e+01
1.760000000000000000e+02 7.401616321095202977e+01
1.770000000000000000e+02 5.098173911240147049e+01
1.780000000000000000e+02 1.213203205973860150e+02
1.790000000000000000e+02 1.899030075710432470e+02
1.800000000000000000e+02 1.701736157021355211e+02
1.810000000000000000e+02 7.035112879900405858e+01
1.820000000000000000e+02 3.788628235013482026e+01
1.830000000000000000e+02 4.152024290811056062e+01
1.840000000000000000e+02 3.183269755652360544e+01
1.850000000000000000e+02 6.506885333540813576e+01
1.860000000000000000e+02 1.903888541061799629e+02
1.870000000000000000e+02 1.862014087741139292e+02
1.880000000000000000e+02 1.028406575233360627e+02
1.890000000000000000e+02 9.779828061800090211e+01
1.900000000000000000e+02 1.285143248911014950e+02
1.910000000000000000e+02 4.438319958639319651e+01
1.920000000000000000e+02 3.760872876581407098e+01
1.930000000000000000e+02 1.846244742999373898e+02
1.940000000000000000e+02 9.676394677037926328e+01
1.950000000000000000e+02 8.478399604231471187e+01
1.960000000000000000e+02 1.115789106409457787e+02
1.970000000000000000e+02 1.075284890479154143e+02
1.980000000000000000e+02 7.688265760423132633e+01
1.990000000000000000e+02 4.589186771624144967e+01
2.000000000000000000e+02 1.417805736859561136e+02
2.010000000000000000e+02 2.024845088363405807e+02
2.020000000000000000e+02 1.406872919103806652e+01
2.030000000000000000e+02 1.865297401929066012e+01
2.040000000000000000e+02 4.931198916614797412e+01
2.050000000000000000e+02 5.870764422319019360e+01
2.060000000000000000e+02 5.990539832434670586e+01
2.070000000000000000e+02 5.954807832399922773e+01
2.080000000000000000e+02 1.062766024393277746e+02
2.090000000000000000e+02 1.259994929075076158e+02
2.100000000000000000e+02 9.372470613150774454e+01
2.110000000000000000e+02 7.827398116988170784e+01
2.120000000000000000e+02 7.647192936126090501e+01
2.130000000000000000e+02 2.991221819539563853e+01
2.140000000000000000e+02 4.269271975731153645e+01
2.150000000000000000e+02 6.647321139983473870e+01
2.160000000000000000e+02 1.241430570421074577e+02
2.170000000000000000e+02 2.949198105787270663e+01
2.180000000000000000e+02 2.962360999377723303e+01
2.190000000000000000e+02 6.792354100808974238e+01
2.200000000000000000e+02 7.174399728479573923e+01
2.210000000000000000e+02 1.123978114913915221e+02
2.220000000000000000e+02 1.629289522713125393e+02
2.230000000000000000e+02 1.743456450736356373e+02
2.240000000000000000e+02 1.254383597386433706e+02
2.250000000000000000e+02 1.668156546359675190e+02
2.260000000000000000e+02 1.379871856253898272e+02
2.270000000000000000e+02 8.585777155122356419e+01
2.280000000000000000e+02 1.366351009126741474e+02
2.290000000000000000e+02 2.280367105579755957e+02
2.300000000000000000e+02 2.255044324554131094e+02
2.310000000000000000e+02 2.102315025513378259e+02
2.320000000000000000e+02 2.412462288944204829e+02
2.330000000000000000e+02 2.558479808131092739e+02
2.340000000000000000e+02 2.089756090645096833e+02
2.350000000000000000e+02 1.662601979464843396e+02
2.360000000000000000e+02 1.573584647790916051e+02
2.370000000000000000e+02 1.682230461729931505e+02
2.380000000000000000e+02 1.475084864136071587e+02
2.390000000000000000e+02 1.246677261149141174e+02
2.400000000000000000e+02 1.499263912258869595e+02
2.410000000000000000e+02 1.890968796307818138e+02
2.420000000000000000e+02 2.839956104542647353e+01
2.430000000000000000e+02 4.064542710848304807e+01
2.440000000000000000e+02 1.641042118000845278e+02
2.450000000000000000e+02 2.730440628500310822e+02
2.460000000000000000e+02 2.720633431030906877e+02
2.470000000000000000e+02 3.347344917444513044e+02
2.480000000000000000e+02 2.641538058286672594e+02
2.490000000000000000e+02 1.492347581207216365e+02
2.500000000000000000e+02 1.483142652146857756e+02
2.510000000000000000e+02 1.649606276083799514e+02
2.520000000000000000e+02 1.638514106616885329e+02
2.530000000000000000e+02 1.624018647583489496e+02
2.540000000000000000e+02 1.719682370255134458e+02
2.550000000000000000e+02 1.862404325658577022e+02
2.560000000000000000e+02 2.602439174030276376e+02
2.570000000000000000e+02 1.741380652976590113e+02
2.580000000000000000e+02 5.762980747977695017e+01
2.590000000000000000e+02 1.723587927815805472e+02
2.600000000000000000e+02 1.640257931134620151e+02
2.610000000000000000e+02 1.804415555785978711e+02
2.620000000000000000e+02 1.893450775357806606e+02
2.630000000000000000e+02 1.545197754200372628e+02
2.640000000000000000e+02 1.436111627955207268e+02
2.650000000000000000e+02 2.053338430201214919e+02
2.660000000000000000e+02 2.489152799626635328e+02
2.670000000000000000e+02 2.385827759228541822e+02
2.680000000000000000e+02 2.047130515245800666e+02
2.690000000000000000e+02 2.896152882389565093e+02
2.700000000000000000e+02 2.773124312318550437e+02
2.710000000000000000e+02 2.567814475212608158e+02
2.720000000000000000e+02 2.837727372121982512e+02
2.730000000000000000e+02 2.238847064094588291e+02
2.740000000000000000e+02 2.296979502592820097e+02
2.750000000000000000e+02 2.390873178593655553e+02
2.760000000000000000e+02 2.221074357602157363e+02
2.770000000000000000e+02 1.924961519601745579e+02
2.780000000000000000e+02 1.150483787678911227e+02
2.790000000000000000e+02 1.131272013690110043e+02
2.800000000000000000e+02 1.402519351379382044e+02
2.810000000000000000e+02 1.682631970130676962e+02
2.820000000000000000e+02 2.633360082762923184e+02
2.830000000000000000e+02 1.815961410080878409e+02
2.840000000000000000e+02 1.987893364447216982e+02
2.850000000000000000e+02 2.174051821613755351e+02
2.860000000000000000e+02 1.580919937523295360e+01
2.870000000000000000e+02 1.992488381041352952e+01
2.880000000000000000e+02 6.942397209041905626e+01
2.890000000000000000e+02 8.923120428956664796e+01
2.900000000000000000e+02 7.883549696950836960e+01
2.910000000000000000e+02 8.339601059311492293e+01
2.920000000000000000e+02 9.350309059946039270e+01
2.930000000000000000e+02 1.426868786558787292e+02
2.940000000000000000e+02 1.592002912484452679e+02
2.950000000000000000e+02 8.583235877411384251e+01
2.960000000000000000e+02 6.270745402821008696e+01
2.970000000000000000e+02 3.601443983824136552e+01
2.980000000000000000e+02 1.717392560672061563e+01
2.990000000000000000e+02 2.819408013067799601e+01
3.000000000000000000e+02 6.194307729309246469e+01
3.010000000000000000e+02 2.781334538892322428e+01
3.020000000000000000e+02 1.646573971167811123e+01
3.030000000000000000e+02 5.289594533706829793e+01
3.040000000000000000e+02 9.736702231487257109e+01
3.050000000000000000e+02 7.823549559842309975e+01
3.060000000000000000e+02 2.158972488073034413e+01
3.070000000000000000e+02 5.691601447625044585e+01
3.080000000000000000e+02 2.601086104542478239e+01
3.090000000000000000e+02 1.564382602986906363e+02
3.100000000000000000e+02 2.224304022194560275e+02
3.110000000000000000e+02 1.164899063679697520e+02
3.120000000000000000e+02 4.434939081103504321e+01
3.130000000000000000e+02 7.767541447417711709e+01
3.140000000000000000e+02 2.446309018457056084e+01
3.150000000000000000e+02 1.615670006015345450e+01
3.160000000000000000e+02 1.861909293715018521e+01
3.170000000000000000e+02 1.645333583990047899e+01
3.180000000000000000e+02 6.277527879900486596e+01
3.190000000000000000e+02 1.090825858120722387e+02
3.200000000000000000e+02 9.405763883243415080e+01
3.210000000000000000e+02 3.734476632648750183e+01
3.220000000000000000e+02 7.669327872433082405e+01
3.230000000000000000e+02 3.264918175860513827e+01
3.240000000000000000e+02 4.508066973655740384e+00
3.250000000000000000e+02 1.044648147147936470e+02
3.260000000000000000e+02 1.715014115536219492e+02
3.270000000000000000e+02 5.622463830118329753e+01
3.280000000000000000e+02 3.293713462974474737e+01
3.290000000000000000e+02 5.727056988176696706e+01
3.300000000000000000e+02 9.239684755859732945e+01
3.310000000000000000e+02 1.094429730553829785e+02
3.320000000000000000e+02 1.011306672433105120e+02
3.330000000000000000e+02 1.373126554241856638e+02
3.340000000000000000e+02 1.303369477494299247e+02
3.350000000000000000e+02 2.233210527691368839e+02
3.360000000000000000e+02 4.147653886745493423e+02
3.370000000000000000e+02 4.797425041692595187e+02
3.380000000000000000e+02 2.825705421074418950e+02
3.390000000000000000e+02 1.328721655050807442e+02
3.400000000000000000e+02 6.892515655329710000e+01
3.410000000000000000e+02 1.975983012072121525e+01
3.420000000000000000e+02 9.445559379797224153e+00
3.430000000000000000e+02 5.291938522812137080e+01
3.440000000000000000e+02 4.430601798174818384e+01
3.450000000000000000e+02 1.194599122962031856e+01
3.460000000000000000e+02 2.920293814599759941e+01
3.470000000000000000e+02 3.312267625181509345e+01
3.480000000000000000e+02 1.229042043352022695e+01
3.490000000000000000e+02 9.377107907507185303e+01
3.500000000000000000e+02 1.904437052893587747e+02
3.510000000000000000e+02 1.984705249740718500e+02
3.520000000000000000e+02 1.680620556200743465e+02
3.530000000000000000e+02 1.048633525036297414e+02
3.540000000000000000e+02 1.001314759551959099e+02
3.550000000000000000e+02 1.802434679527081016e+02
3.560000000000000000e+02 2.260762515453225774e+02
3.570000000000000000e+02 2.008977206596138387e+02
3.580000000000000000e+02 1.579177080273791773e+02
3.590000000000000000e+02 1.125272013067813646e+02
3.600000000000000000e+02 7.646799003111408410e+01
3.610000000000000000e+02 1.358140425845243158e+02
3.620000000000000000e+02 2.522892949595490109e+02
3.630000000000000000e+02 1.861678467330367823e+02
3.640000000000000000e+02 7.473468664592392940e+01
3.650000000000000000e+02 2.367147654843363398e+02
3.660000000000000000e+02 3.592339097282697367e+02
3.670000000000000000e+02 3.576208691557768589e+02
3.680000000000000000e+02 3.904603887367753714e+02
3.690000000000000000e+02 4.863333452395771133e+02
3.700000000000000000e+02 4.771884661965984264e+02
3.710000000000000000e+02 5.706861496577472508e+02
3.720000000000000000e+02 6.898546579340378457e+02
3.730000000000000000e+02 8.463448529448364752e+02
3.740000000000000000e+02 1.083888492636384854e+03
3.750000000000000000e+02 1.422044682845883699e+03
3.760000000000000000e+02 1.892253669846545108e+03
3.770000000000000000e+02 2.758737561294355146e+03
3.780000000000000000e+02 4.064359501763136905e+03
3.790000000000000000e+02 5.466291648900844848e+03
3.800000000000000000e+02 5.610512058494062330e+03
3.810000000000000000e+02 4.144559931549434623e+03
3.820000000000000000e+02 2.440795719975132670e+03
3.830000000000000000e+02 1.285461896079667895e+03
3.840000000000000000e+02 7.167506046463423672e+02
3.850000000000000000e+02 4.666650820784083180e+02
3.860000000000000000e+02 3.451476378967030882e+02
3.870000000000000000e+02 2.739846945032162466e+02
3.880000000000000000e+02 3.109309810205351710e+02
3.890000000000000000e+02 4.708431822650898653e+02
3.900000000000000000e+02 3.146786693217199513e+02
3.910000000000000000e+02 1.571860804604843338e+02
3.920000000000000000e+02 9.353389842356347117e+01
3.930000000000000000e+02 7.919629369425433651e+01
3.940000000000000000e+02 5.491405477909143684e+01
3.950000000000000000e+02 6.242291618543902132e+01
3.960000000000000000e+02 1.025451764724180919e+02
3.970000000000000000e+02 1.368015273387263449e+02
3.980000000000000000e+02 1.734573367766049330e+02
3.990000000000000000e+02 2.996050251347989501e+02
4.000000000000000000e+02 2.795497512756697915e+02
4.010000000000000000e+02 3.010420252852110252e+02
4.020000000000000000e+02 4.444902060555792218e+02
4.030000000000000000e+02 6.900998330429335965e+02
4.040000000000000000e+02 9.904238596141826747e+02
4.050000000000000000e+02 1.186217129406884851e+03
4.060000000000000000e+02 1.330720649450320934e+03
4.070000000000000000e+02 1.506606518457069569e+03
4.080000000000000000e+02 1.773851069487661562e+03
4.090000000000000000e+02 2.143566513378968921e+03
4.100000000000000000e+02 2.567744527581918646e+03
4.110000000000000000e+02 3.166318978635151780e+03
4.120000000000000000e+02 3.973891207633282193e+03
4.130000000000000000e+02 5.036586430941508297e+03
4.140000000000000000e+02 6.690557691350344612e+03
4.150000000000000000e+02 9.667228261356643998e+03
4.160000000000000000e+02 1.441305023226873527e+04
4.170000000000000000e+02 2.048527332711041163e+04
4.180000000000000000e+02 2.511873654013683699e+04
4.190000000000000000e+02 2.056986000000002969e+04
4.200000000000000000e+02 1.246419618129029550e+04
4.210000000000000000e+02 6.355891227753641033e+03
4.220000000000000000e+02 3.405721051441606960e+03
4.230000000000000000e+02 2.146514187927819421e+03
4.240000000000000000e+02 1.448965832814772739e+03
4.250000000000000000e+02 1.200803516905205697e+03
4.260000000000000000e+02 1.167844601120099696e+03
4.270000000000000000e+02 1.208762250155569291e+03
4.280000000000000000e+02 1.335759223397639971e+03
4.290000000000000000e+02 1.736296794026141470e+03
4.300000000000000000e+02 2.075772479983408175e+03
4.310000000000000000e+02 2.153405879693008956e+03
4.320000000000000000e+02 1.908979271312997753e+03
4.330000000000000000e+02 1.410320672267156169e+03
4.340000000000000000e+02 1.055896455382706790e+03
4.350000000000000000e+02 7.737480187720461799e+02
4.360000000000000000e+02 4.466998848195693199e+02
4.370000000000000000e+02 1.688278172993162514e+02
4.380000000000000000e+02 1.602792846504869146e+02
4.390000000000000000e+02 1.947545814807130000e+02
4.400000000000000000e+02 2.042980964322754573e+02
4.410000000000000000e+02 2.864161518357173009e+02
4.420000000000000000e+02 3.478004805474905083e+02
4.430000000000000000e+02 2.023868421904161323e+02
4.440000000000000000e+02 1.494828693424600772e+02
4.450000000000000000e+02 2.019400189133153845e+02
4.460000000000000000e+02 2.338631669570627594e+02
4.470000000000000000e+02 2.141574047500517111e+02
4.480000000000000000e+02 2.078781213648614710e+02
4.490000000000000000e+02 2.518825602986960064e+02
4.500000000000000000e+02 4.635918120721875653e+02
4.510000000000000000e+02 4.594165729460618195e+02
4.520000000000000000e+02 2.090551122588693715e+02
4.530000000000000000e+02 1.702169896494486068e+02
4.540000000000000000e+02 6.875871320472775494e+01
4.550000000000000000e+02 1.230606097261954943e+02
4.560000000000000000e+02 1.092966697158296938e+02
4.570000000000000000e+02 2.265403032627984459e+01
4.580000000000000000e+02 1.865157507363641187e+01
4.590000000000000000e+02 5.793606288736668830e+01
4.600000000000000000e+02 6.197816430616101258e+01
4.610000000000000000e+02 2.514511524579959811e+01
4.620000000000000000e+02 1.384973771416699151e+01
4.630000000000000000e+02 4.172378223351326909e+01
4.640000000000000000e+02 9.060437448662550963e+00
4.650000000000000000e+02 3.123087961211367514e+01
4.660000000000000000e+02 3.318789234757364426e+01
4.670000000000000000e+02 2.157975172785666729e+01
4.680000000000000000e+02 1.614856817672728795e+01
4.690000000000000000e+02 5.218989556200715896e+01
4.700000000000000000e+02 5.205450240821391361e+01
4.710000000000000000e+02 6.123410029661967258e+01
4.720000000000000000e+02 6.247015756947354248e+01
4.730000000000000000e+02 3.080311085875262478e+00
4.740000000000000000e+02 1.032384250570555828e+00
4.750000000000000000e+02 2.488004694046874121e+01
4.760000000000000000e+02 9.880565928645197005e+00
4.770000000000000000e+02 2.794292848786590255e+01
4.780000000000000000e+02 7.039139304915998707e+00
4.790000000000000000e+02 3.002717945239563235e+01
4.800000000000000000e+02 7.377231052686130397e+01
4.810000000000000000e+02 6.191964216967383550e+01
4.820000000000000000e+02 6.730333795893012905e+01
4.830000000000000000e+02 1.245490630159717824e+02
4.840000000000000000e+02 5.108955287906948683e+01
4.850000000000000000e+02 9.392332222568037992e+01
4.860000000000000000e+02 1.259913204107031959e+02
4.870000000000000000e+02 1.034193116365890006e+02
4.880000000000000000e+02 6.336512830118217465e+01
4.890000000000000000e+02 6.645883919535499729e+01
4.900000000000000000e+02 1.071867002489101850e+02
4.910000000000000000e+02 1.429164100186679605e+02
4.920000000000000000e+02 1.033968518436315662e+02
4.930000000000000000e+02 1.155156571665671805e+01
4.940000000000000000e+02 1.005528657560601857e+01
4.950000000000000000e+02 7.271574046868471441e+01
4.960000000000000000e+02 3.450704950840101759e+01
4.970000000000000000e+02 3.154632078655812677e+01
4.980000000000000000e+02 9.269886873911248415e+01
4.990000000000000000e+02 6.393113548641342447e+01
5.000000000000000000e+02 5.825423413814561258e+01
5.010000000000000000e+02 8.449870161169945959e+01
5.020000000000000000e+02 1.158186836548437100e+02
5.030000000000000000e+02 1.240076270898149886e+02
5.040000000000000000e+02 9.739938289151594120e+01
5.050000000000000000e+02 1.308791224642191935e+02
5.060000000000000000e+02 9.368775454262504354e+01
5.070000000000000000e+02 9.436638574154594039e+01
5.080000000000000000e+02 1.121140246214489906e+02
5.090000000000000000e+02 4.336287210951886095e+01
5.100000000000000000e+02 1.558934846795239793e+01
5.110000000000000000e+02 3.885586046048392461e+01
5.120000000000000000e+02 1.982888671852120410e+01
5.130000000000000000e+02 5.896860558804728925e+00
5.140000000000000000e+02 1.076910976042387773e+02
5.150000000000000000e+02 3.362517236672873651e+02
5.160000000000000000e+02 2.208819868726610594e+02
5.170000000000000000e+02 8.064630756482434037e+01
5.180000000000000000e+02 3.533233920348557433e+01
5.190000000000000000e+02 6.541065130651408310e+01
5.200000000000000000e+02 9.660763951255006532e+01
5.210000000000000000e+02 2.286808982285594638e+01
5.220000000000000000e+02 2.029234487391196495e+01
5.230000000000000000e+02 4.479888514001238065e+01
5.240000000000000000e+02 3.554893431445773899e+01
5.250000000000000000e+02 5.915853487349642670e+00
5.260000000000000000e+02 6.635254575192013249e+01
5.270000000000000000e+02 4.069155993154970474e+01
5.280000000000000000e+02 5.525228375856652718e+01
5.290000000000000000e+02 1.930655918274183307e+02
5.300000000000000000e+02 8.476052315701971906e+01
5.310000000000000000e+02 3.815859020535216217e+01
5.320000000000000000e+02 8.890912377100372055e+01
5.330000000000000000e+02 1.353374860194985558e+02
5.340000000000000000e+02 1.729905502800232000e+02
5.350000000000000000e+02 1.953209548019078170e+02
5.360000000000000000e+02 1.579495974486617342e+02
5.370000000000000000e+02 1.536876003733665073e+02
5.380000000000000000e+02 1.392000736154327285e+02
5.390000000000000000e+02 1.718744274424385594e+02
5.400000000000000000e+02 1.874120910599453964e+02
5.410000000000000000e+02 7.383047796515143091e+01
5.420000000000000000e+02 1.305317316051428520e+02
5.430000000000000000e+02 5.351501423563416182e+01
5.440000000000000000e+02 9.234813256585954377e+01
5.450000000000000000e+02 1.607478788054739880e+02
5.460000000000000000e+02 6.705532813938962988e+01
5.470000000000000000e+02 7.145071500726014335e+01
5.480000000000000000e+02 1.201723327250107332e+02
5.490000000000000000e+02 1.050289750300759977e+02
5.500000000000000000e+02 6.723409523335399740e+01
5.510000000000000000e+02 6.236234743467449704e+01
5.520000000000000000e+02 1.020890161211372913e+02
5.530000000000000000e+02 1.904560533291847833e+02
5.540000000000000000e+02 1.569792694732464895e+02
5.550000000000000000e+02 1.014380433105164201e+02
5.560000000000000000e+02 9.707748830947943475e+01
5.570000000000000000e+02 1.039686942128185763e+02
5.580000000000000000e+02 6.860102671022605136e+01
5.590000000000000000e+02 5.928756654635948564e+01
5.600000000000000000e+02 1.319915706285011083e+02
5.610000000000000000e+02 2.152717682016178173e+02
5.620000000000000000e+02 2.211122538892350917e+02
5.630000000000000000e+02 1.627722490354696561e+02
5.640000000000000000e+02 1.334115144368388428e+02
5.650000000000000000e+02 1.951565117817862642e+02
5.660000000000000000e+02 3.218764980501969717e+02
5.670000000000000000e+02 3.640583625181502043e+02
5.680000000000000000e+02 2.041438257000651788e+02
5.690000000000000000e+02 1.663815968263845377e+02
5.700000000000000000e+02 1.127256654428541935e+02
5.710000000000000000e+02 1.767523353453642017e+02
5.720000000000000000e+02 2.603677293092722493e+02
5.730000000000000000e+02 2.618387581829517217e+02
5.740000000000000000e+02 4.061528045426255176e+02
5.750000000000000000e+02 5.986411813524143781e+02
5.760000000000000000e+02 6.790011164488689701e+02
5.770000000000000000e+02 8.493614141464402110e+02
5.780000000000000000e+02 1.013777123833229894e+03
5.790000000000000000e+02 7.906980418170576286e+02
5.800000000000000000e+02 4.934479048745105274e+02
5.810000000000000000e+02 2.969411901265330584e+02
5.820000000000000000e+02 1.755595656366678554e+02
5.830000000000000000e+02 1.001417876789050325e+02
5.840000000000000000e+02 4.685042302800322034e+01
5.850000000000000000e+02 4.127116484446413835e+01
5.860000000000000000e+02 7.247539489732619700e+01
5.870000000000000000e+02 1.026297412072177053e+02
5.880000000000000000e+02 5.278822308585800727e+01
5.890000000000000000e+02 3.674593633685861249e+01
5.900000000000000000e+02 6.762152626011240386e+01
5.910000000000000000e+02 1.403489127830703787e+01
5.920000000000000000e+02 8.956278062227293901e+01
5.930000000000000000e+02 7.846084750052284562e+01
5.940000000000000000e+02 2.730962556615464365e+01
5.950000000000000000e+02 9.784467505911490548e+01
5.960000000000000000e+02 8.675051596764147632e+01
5.970000000000000000e+02 1.001260012881140824e+02
5.980000000000000000e+02 1.550200645924073797e+02
5.990000000000000000e+02 2.230421419622476549e+02
6.000000000000000000e+02 2.770560997303471140e+02
6.010000000000000000e+02 2.729510868077151144e+02
6.020000000000000000e+02 8.977844301597068011e+01
6.030000000000000000e+02 6.508771674548934527e+01
6.040000000000000000e+02 2.064573244720705603e+01
6.050000000000000000e+02 1.118268853266834562e+01
6.060000000000000000e+02 3.409982238954520994e+01
6.070000000000000000e+02 1.859126276291265611e+01
6.080000000000000000e+02 7.128138593030769243e+01
6.090000000000000000e+02 5.177703831569863269e+01
6.100000000000000000e+02 1.151884082388684050e+01
6.110000000000000000e+02 1.442815908958964712e+02
6.120000000000000000e+02 8.629160453432922395e+01
6.130000000000000000e+02 8.893484888404866240e+01
6.140000000000000000e+02 9.901123362919862814e+01
6.150000000000000000e+02 3.185028688238965060e+02
6.160000000000000000e+02 3.258945284380827161e+02
6.170000000000000000e+02 9.562101778929744000e+01
6.180000000000000000e+02 9.775369543040933706e+01
6.190000000000000000e+02 1.165225281891723483e+02
6.200000000000000000e+02 1.938991484030989909e+01
6.210000000000000000e+02 4.488786874505956703e+00
6.220000000000000000e+02 5.551362763327417582e+01
6.230000000000000000e+02 1.068773909562332278e+02
6.240000000000000000e+02 9.950580879278352597e+01
6.250000000000000000e+02 6.716943547604486753e+01
6.260000000000000000e+02 2.218982420452145448e+02
6.270000000000000000e+02 3.019128240613994762e+02
6.280000000000000000e+02 2.482236667703809303e+02
6.290000000000000000e+02 2.749225897324203061e+02
6.300000000000000000e+02 4.730632219871390589e+02
6.310000000000000000e+02 4.860316591785938272e+02
6.320000000000000000e+02 5.444527925741568879e+02
6.330000000000000000e+02 6.481558627255772080e+02
6.340000000000000000e+02 7.632726107654035559e+02
6.350000000000000000e+02 9.168164769549947550e+02
6.360000000000000000e+02 1.037223505289368177e+03
6.370000000000000000e+02 1.339302498133563859e+03
6.380000000000000000e+02 1.611751135656513952e+03
6.390000000000000000e+02 1.927849241858549476e+03
6.400000000000000000e+02 2.336374910825395546e+03
6.410000000000000000e+02 2.770863970752938258e+03
6.420000000000000000e+02 3.410940533914144908e+03
6.430000000000000000e+02 4.022464846536725418e+03
6.440000000000000000e+02 4.525988564613146991e+03
6.450000000000000000e+02 4.758826350342252226e+03
6.460000000000000000e+02 4.570067783907089506e+03
6.470000000000000000e+02 3.991691803982568672e+03
6.480000000000000000e+02 3.397328530595305892e+03
6.490000000000000000e+02 2.703086205723741386e+03
6.500000000000000000e+02 2.038339205973848721e+03
6.510000000000000000e+02 1.540613668326067454e+03
6.520000000000000000e+02 1.237208485998747165e+03
6.530000000000000000e+02 1.017054555569380113e+03
6.540000000000000000e+02 8.774550655673079973e+02
6.550000000000000000e+02 7.235055809583028577e+02
6.560000000000000000e+02 6.026464156191645998e+02
6.570000000000000000e+02 5.641887948350965871e+02
6.580000000000000000e+02 5.539947592200787767e+02
6.590000000000000000e+02 4.351241546359688073e+02
6.600000000000000000e+02 3.422424879278153185e+02
6.610000000000000000e+02 2.324557336859577390e+02
6.620000000000000000e+02 2.177892521883420613e+02
6.630000000000000000e+02 2.827183906658370347e+02
6.640000000000000000e+02 2.944664182327316553e+02
6.650000000000000000e+02 2.368456626088764665e+02
6.660000000000000000e+02 2.191338272972412256e+02
6.670000000000000000e+02 2.183823742169674347e+02
6.680000000000000000e+02 2.409606769390287297e+02
6.690000000000000000e+02 2.210298745488495911e+02
6.700000000000000000e+02 1.031899708753380480e+02
6.710000000000000000e+02 1.020202988801325290e+02
6.720000000000000000e+02 1.135580105372329172e+02
6.730000000000000000e+02 7.491418565028121179e+01
6.740000000000000000e+02 4.308973290335966766e+01
6.750000000000000000e+02 3.259087834889062663e+01
6.760000000000000000e+02 2.429653257000568445e+01
6.770000000000000000e+02 1.993477395353660597e+02
6.780000000000000000e+02 1.420201291225889122e+02
6.790000000000000000e+02 1.301801778676621666e+02
6.800000000000000000e+02 1.068114389919118423e+02
6.810000000000000000e+02 3.641842308027385400e+01
6.820000000000000000e+02 7.968530506534082747e+01
6.830000000000000000e+02 1.772163864965765470e+02
6.840000000000000000e+02 1.383126583281498654e+02
6.850000000000000000e+02 7.614718096038329520e+01
6.860000000000000000e+02 4.822084877203937481e+01
6.870000000000000000e+02 7.249426678904612231e+01
6.880000000000000000e+02 1.383099435801689765e+02
6.890000000000000000e+02 7.135345157851267572e+01
6.900000000000000000e+02 2.222554783447559501e+01
6.910000000000000000e+02 3.388813928245397022e+01
6.920000000000000000e+02 4.842889449906692079e+01
6.930000000000000000e+02 1.685681002696550834e+01
6.940000000000000000e+02 8.202623155329646920e+00
6.950000000000000000e+02 4.093729714374624251e+01
6.960000000000000000e+02 1.158590328873731323e+01
6.970000000000000000e+02 2.428123102778619113e+01
6.980000000000000000e+02 4.788404532254592993e+01
6.990000000000000000e+02 1.849115209707569818e+01
7.000000000000000000e+02 4.687779502903434548e+01
7.010000000000000000e+02 3.845600408213741161e+01
7.020000000000000000e+02 4.507522210308638222e+01
7.030000000000000000e+02 2.789637052260596661e+01
7.040000000000000000e+02 1.152976054967847261e+02
7.050000000000000000e+02 1.256604131922817373e+02
7.060000000000000000e+02 1.340403254947123344e+02
7.070000000000000000e+02 3.240155751918665317e+01
7.080000000000000000e+02 1.459700560464614796e+02
7.090000000000000000e+02 1.527758378344736059e+02
7.100000000000000000e+02 1.276278036092098773e+02
7.110000000000000000e+02 1.503456048122796176e+02
7.120000000000000000e+02 1.515040687616679804e+02
7.130000000000000000e+02 1.563159190416922115e+02
7.140000000000000000e+02 5.644256393279145101e+01
7.150000000000000000e+02 9.585427100809521050e+01
7.160000000000000000e+02 9.774182321924627104e+01
7.170000000000000000e+02 7.945710156574499194e+01
7.180000000000000000e+02 1.554722521053723483e+02
7.190000000000000000e+02 1.343548043559459018e+02
7.200000000000000000e+02 6.905294475736201321e+01
7.210000000000000000e+02 1.492495313835278239e+02
7.220000000000000000e+02 1.682818248288752727e+02
7.230000000000000000e+02 1.763288414765638379e+02
7.240000000000000000e+02 2.568710760423148827e+02
7.250000000000000000e+02 1.832645727027588975e+02
7.260000000000000000e+02 1.325864445043546880e+02
7.270000000000000000e+02 1.689947765608808652e+02
7.280000000000000000e+02 1.890327743621654690e+02
7.290000000000000000e+02 1.771684912899207518e+02
7.300000000000000000e+02 1.636679421489311039e+02
7.310000000000000000e+02 1.421936084837165311e+02
7.320000000000000000e+02 1.144536025347474038e+02
7.330000000000000000e+02 2.074695753578255619e+01
7.340000000000000000e+02 9.023787274574989681e+01
7.350000000000000000e+02 6.586524953328586207e+01
7.360000000000000000e+02 2.184941333333340765e+02
7.370000000000000000e+02 1.647435533181252936e+02
7.380000000000000000e+02 2.148106995021775845e+02
7.390000000000000000e+02 2.511924087948556235e+02
7.400000000000000000e+02 3.220274819991713571e+02
7.410000000000000000e+02 3.961643906036100589e+02
7.420000000000000000e+02 4.739324248288749573e+02
7.430000000000000000e+02 5.801479638117002651e+02
7.440000000000000000e+02 6.633367394316533137e+02
7.450000000000000000e+02 6.550405826592007088e+02
7.460000000000000000e+02 7.577920214478376693e+02
7.470000000000000000e+02 8.571279337274439740e+02
7.480000000000000000e+02 8.962737491599257282e+02
7.490000000000000000e+02 9.113876881352410919e+02
7.500000000000000000e+02 9.172029156191659922e+02
7.510000000000000000e+02 8.924121734287484742e+02
7.520000000000000000e+02 8.060301293092730930e+02
7.530000000000000000e+02 7.261765432482895903e+02
7.540000000000000000e+02 7.348393590956225125e+02
7.550000000000000000e+02 7.572917214270895556e+02
7.560000000000000000e+02 6.557309872433094142e+02
7.570000000000000000e+02 4.725881578510670806e+02
7.580000000000000000e+02 4.400293369425424430e+02
7.590000000000000000e+02 3.913078990250976403e+02
7.600000000000000000e+02 3.326211552675234771e+02
7.610000000000000000e+02 3.204816904791543379e+02
7.620000000000000000e+02 3.129764114291630790e+02
7.630000000000000000e+02 1.984448512235577766e+02
7.640000000000000000e+02 1.653513252644682154e+02
7.650000000000000000e+02 2.641539375233360261e+02
7.660000000000000000e+02 2.609045776026531485e+02
7.670000000000000000e+02 2.752247963907916528e+02
7.680000000000000000e+02 3.627658376063058085e+02
7.690000000000000000e+02 3.159813658233089200e+02
7.700000000000000000e+02 2.395937968263843914e+02
7.710000000000000000e+02 2.391766327317984064e+02
7.720000000000000000e+02 2.411936948558389417e+02
7.730000000000000000e+02 2.320576187512963884e+02
7.740000000000000000e+02 2.291927857498442904e+02
7.750000000000000000e+02 2.220002155569377464e+02
7.760000000000000000e+02 1.635379130056005010e+02
7.770000000000000000e+02 2.120408313627872872e+02
7.780000000000000000e+02 2.202525364862060826e+02
7.790000000000000000e+02 2.048961894212819459e+02
7.800000000000000000e+02 1.631709729931561697e+02
7.810000000000000000e+02 1.601279369010579785e+02
7.820000000000000000e+02 2.740009160755024595e+02
7.830000000000000000e+02 1.813042973242084486e+02
7.840000000000000000e+02 1.241393948350965672e+02
7.850000000000000000e+02 1.811540308027377080e+02
7.860000000000000000e+02 2.140473724595609610e+02
7.870000000000000000e+02 1.732985948143542032e+02
7.880000000000000000e+02 1.316013931549468907e+02
7.890000000000000000e+02 1.175260599751145918e+02
7.900000000000000000e+02 8.198153975938585347e+01
7.910000000000000000e+02 1.946439314250130224e+02
7.920000000000000000e+02 1.503135553712182286e+02
7.930000000000000000e+02 1.264563644679510901e+02
7.940000000000000000e+02 1.973290488902720199e+02
7.950000000000000000e+02 1.380309377021989405e+02
7.960000000000000000e+02 1.260168779713752798e+02
7.970000000000000000e+02 1.124206433727444505e+02
7.980000000000000000e+02 1.996396336029863505e+02
7.990000000000000000e+02 2.093789959137114352e+02
8.000000000000000000e+02 2.033581890479143226e+02
8.010000000000000000e+02 2.398826429786340952e+02
8.020000000000000000e+02 1.706421312383324675e+02
8.030000000000000000e+02 2.290297995021787756e+02
8.040000000000000000e+02 3.099832856253882483e+02
8.050000000000000000e+02 1.867077816842909215e+02
8.060000000000000000e+02 1.208788750715645364e+02
8.070000000000000000e+02 1.709711563161166055e+02
8.080000000000000000e+02 1.554092661688456474e+02
8.090000000000000000e+02 1.378455720182530229e+02
8.100000000000000000e+02 2.379032895249918340e+02
8.110000000000000000e+02 1.813821110143162798e+02
8.120000000000000000e+02 1.181578318747410776e+02
8.130000000000000000e+02 1.553311451358623003e+02
8.140000000000000000e+02 1.975412908732642450e+02
8.150000000000000000e+02 1.114118837328917664e+02
8.160000000000000000e+02 5.231325433727427310e+01
8.170000000000000000e+02 5.303341478738865078e+01
8.180000000000000000e+02 1.266182902737467089e+02
8.190000000000000000e+02 1.576651755652350175e+02
8.200000000000000000e+02 1.021407039452362540e+02
8.210000000000000000e+02 1.871803439236711597e+02
8.220000000000000000e+02 4.995062816428150541e+02
8.230000000000000000e+02 2.247335362919814372e+02
8.240000000000000000e+02 2.063317625388961574e+02
8.250000000000000000e+02 5.069116785936604401e+02
8.260000000000000000e+02 4.183335139182913736e+02
8.270000000000000000e+02 1.892324258659987208e+02
8.280000000000000000e+02 2.178076322339724413e+02
8.290000000000000000e+02 1.260012229620417230e+02
8.300000000000000000e+02 1.334747956855424889e+02
8.310000000000000000e+02 1.024097752333553046e+02
8.320000000000000000e+02 7.279580932171754171e+01
8.330000000000000000e+02 2.285975192906065701e+01
8.340000000000000000e+02 1.010574366915581734e+01
8.350000000000000000e+02 3.190459800186800621e+01
8.360000000000000000e+02 9.324210103505528480e+01
8.370000000000000000e+02 2.079037055382580945e+01
8.380000000000000000e+02 8.954087415059322552e+01
8.390000000000000000e+02 1.087837135449071582e+02
8.400000000000000000e+02 1.040240085026964039e+02
8.410000000000000000e+02 1.271192448039837757e+02
8.420000000000000000e+02 1.626498018046059997e+02
8.430000000000000000e+02 1.919099164454582080e+02
8.440000000000000000e+02 1.723020481642809330e+02
8.450000000000000000e+02 2.224459891723718954e+02
8.460000000000000000e+02 1.366308773952672198e+02
8.470000000000000000e+02 3.585464716241490635e+01
8.480000000000000000e+02 1.310314122298251505e+02
8.490000000000000000e+02 3.049696664661972250e+02
8.500000000000000000e+02 1.987233500933405992e+02
8.510000000000000000e+02 1.994050565650280760e+02
8.520000000000000000e+02 7.978947466085807605e+01
8.530000000000000000e+02 1.410949767890503495e+02
8.540000000000000000e+02 1.605303882389534920e+02
8.550000000000000000e+02 8.725210794026114058e+01
8.560000000000000000e+02 1.403361829495984239e+02
8.570000000000000000e+02 2.794971082140635303e+02
8.580000000000000000e+02 1.926904064094568980e+02
8.590000000000000000e+02 1.808536280439745383e+02
8.600000000000000000e+02 1.679942484131921958e+02
8.610000000000000000e+02 6.481808026758183416e+01
8.620000000000000000e+02 1.294885563783470843e+02
8.630000000000000000e+02 3.494703028624765011e+02
8.640000000000000000e+02 1.872480222567923818e+02
8.650000000000000000e+02 1.590877774735531034e+02
8.660000000000000000e+02 1.288457476773124597e+02
8.670000000000000000e+02 8.168341402406105090e+01
8.680000000000000000e+02 6.422561926571250979e+01
8.690000000000000000e+02 1.307216717129818164e+02
8.700000000000000000e+02 2.090840838207836327e+02
8.710000000000000000e+02 1.214420278158060711e+02
8.720000000000000000e+02 9.339693957071756358e+01
8.730000000000000000e+02 4.548577197261968053e+01
8.740000000000000000e+02 2.173315055071510571e+01
8.750000000000000000e+02 9.433271605972635143e+01
8.760000000000000000e+02 6.365914291848190487e+01
8.770000000000000000e+02 5.622572425430297471e+01
8.780000000000000000e+02 1.007422402530071821e+02
8.790000000000000000e+02 1.510375238332295282e+02
8.800000000000000000e+02 2.107911162829288685e+02
8.810000000000000000e+02 1.684017717693424743e+02
8.820000000000000000e+02 1.068243558971172291e+02
8.830000000000000000e+02 5.684254398879782855e+01
8.840000000000000000e+02 5.789396013690064535e+01
8.850000000000000000e+02 1.181964840489528257e+02
8.860000000000000000e+02 5.720321117610554040e+01
8.870000000000000000e+02 5.787616550715604546e+01
8.880000000000000000e+02 7.187489045426251266e+01
8.890000000000000000e+02 3.637548653391584708e+01
8.900000000000000000e+02 3.326430492221485480e+01
8.910000000000000000e+02 4.952222492636391848e+01
8.920000000000000000e+02 8.023186291994189645e+00
8.930000000000000000e+02 3.377168428189212790e+01
8.940000000000000000e+02 2.781556434557144897e+01
8.950000000000000000e+02 5.815071251554607024e+00
8.960000000000000000e+02 2.150027945820490771e+01
8.970000000000000000e+02 1.222769200995658991e+02
8.980000000000000000e+02 1.583497026757941910e+02
8.990000000000000000e+02 1.042101170918906092e+02
9.000000000000000000e+02 9.924515539099908779e+01
9.010000000000000000e+02 1.485794106616880583e+02
9.020000000000000000e+02 6.023768533914437739e+01
9.030000000000000000e+02 2.209349606616714468e+01
9.040000000000000000e+02 2.950940266749669050e+01
9.050000000000000000e+02 5.030485136485886954e+01
9.060000000000000000e+02 1.337605285358781089e+02
9.070000000000000000e+02 1.025364734287495310e+02
9.080000000000000000e+02 7.741111692594947158e+01
9.090000000000000000e+02 4.495882217751972831e+01
9.100000000000000000e+02 6.785979596349311294e+01
9.110000000000000000e+02 2.185334992905985274e+01
9.120000000000000000e+02 3.399100569721698406e+01
9.130000000000000000e+02 2.135437071769421777e+02
9.140000000000000000e+02 4.514897169674402448e+02
9.150000000000000000e+02 5.682960662588127434e+02
9.160000000000000000e+02 4.631209288736816347e+02
9.170000000000000000e+02 4.284508252437262286e+02
9.180000000000000000e+02 3.516713811696425296e+02
9.190000000000000000e+02 1.753640850777916569e+02
9.200000000000000000e+02 7.993802481642690339e+01
9.210000000000000000e+02 1.020991302426881902e+02
9.220000000000000000e+02 1.013124586268413196e+02
9.230000000000000000e+02 1.031855390043544531e+02
9.240000000000000000e+02 1.968346419622486962e+02
9.250000000000000000e+02 2.204068953329184808e+02
9.260000000000000000e+02 2.137571564613150770e+02
9.270000000000000000e+02 1.579766115121320240e+02
9.280000000000000000e+02 7.625486303256420229e+01
9.290000000000000000e+02 3.988838393901660595e+01
9.300000000000000000e+02 7.003038349097921866e+01
9.310000000000000000e+02 1.275813560257228829e+02
9.320000000000000000e+02 8.980234833436841768e+01
9.330000000000000000e+02 1.252114363617499606e+02
9.340000000000000000e+02 1.004200212196658129e+02
9.350000000000000000e+02 9.614117203650171462e+01
9.360000000000000000e+02 1.354149716241438171e+02
9.370000000000000000e+02 1.478667807508819294e+02
9.380000000000000000e+02 1.664768766279534589e+02
9.390000000000000000e+02 2.739395366521466713e+02
9.400000000000000000e+02 1.771260861024689461e+02
9.410000000000000000e+02 1.440105599336376656e+02
9.420000000000000000e+02 1.533760147064925263e+02
9.430000000000000000e+02 1.783974695084014570e+02
9.440000000000000000e+02 1.485977461841522143e+02
9.450000000000000000e+02 5.478876445965366315e+01
9.460000000000000000e+02 1.481623682431055897e+02
9.470000000000000000e+02 1.978794225471879145e+02
9.480000000000000000e+02 1.444101872433085703e+02
9.490000000000000000e+02 1.224191096245596526e+02
9.500000000000000000e+02 1.597201720597370809e+02
9.510000000000000000e+02 1.875241961833644666e+02
9.520000000000000000e+02 1.579249097697554021e+02
9.530000000000000000e+02 6.216677325451280467e+01
9.540000000000000000e+02 2.948855074465907933e+01
9.550000000000000000e+02 1.097679602302409023e+02
9.560000000000000000e+02 9.701155564198228376e+01
9.570000000000000000e+02 1.185293551088992388e+02
9.580000000000000000e+02 1.515677009541590223e+02
9.590000000000000000e+02 1.587496610661690966e+02
9.600000000000000000e+02 1.018015201659364948e+02
9.610000000000000000e+02 1.933325930112086155e+01
9.620000000000000000e+02 7.999128579962371077e+01
9.630000000000000000e+02 5.024626096038325329e+01
9.640000000000000000e+02 3.270775883201803680e+01
9.650000000000000000e+02 1.232502104293758975e+02
9.660000000000000000e+02 1.271035069321694522e+02
9.670000000000000000e+02 1.034141877436771182e+02
9.680000000000000000e+02 1.244010162414455181e+02
9.690000000000000000e+02 1.410332019041607410e+01
9.700000000000000000e+02 5.036708754458874182e+01
9.710000000000000000e+02 1.200973186060986109e+02
9.720000000000000000e+02 1.106677116573323900e+02
9.730000000000000000e+02 1.189010645924081615e+02
9.740000000000000000e+02 8.411382888197347540e+01
9.750000000000000000e+02 1.118972242066000078e+01
9.760000000000000000e+02 3.123237474424253080e+01
9.770000000000000000e+02 5.339936367973493248e+01
9.780000000000000000e+02 4.438850600497802645e+01
9.790000000000000000e+02 5.893347054345646541e+01
9.800000000000000000e+02 7.442744048537761614e+01
9.810000000000000000e+02 7.548494021779731611e+01
9.820000000000000000e+02 6.602765627525648995e+01
9.830000000000000000e+02 4.382218553619533452e+01
9.840000000000000000e+02 1.994739785936522196e+02
9.850000000000000000e+02 1.981386774735532299e+02
9.860000000000000000e+02 1.813832664937768300e+02
9.870000000000000000e+02 8.913233208670405361e+01
9.880000000000000000e+02 1.037822029247043645e+02
9.890000000000000000e+02 9.931732452924134691e+01
9.900000000000000000e+02 1.157690315909558620e+02
9.910000000000000000e+02 8.585026605683293610e+01
9.920000000000000000e+02 2.346436189008520756e+01
9.930000000000000000e+02 5.335087906658475987e+01
9.940000000000000000e+02 3.909621118025087583e+01
9.950000000000000000e+02 9.121104428038077572e+01
9.960000000000000000e+02 1.216167711885493929e+02
9.970000000000000000e+02 1.897974103298047908e+02
9.980000000000000000e+02 1.879283024056416878e+02
9.990000000000000000e+02 1.205424283758576678e+02
1.000000000000000000e+03 6.563190125907507877e+01
1.001000000000000000e+03 9.885361543569010223e+01
1.002000000000000000e+03 2.150911443064182720e+02
1.003000000000000000e+03 2.641618748962603718e+02
1.004000000000000000e+03 4.542662802904573596e+02
1.005000000000000000e+03 3.285745398340300767e+02
1.006000000000000000e+03 1.727256504149345062e+02
1.007000000000000000e+03 1.642873813278011994e+02
1.008000000000000000e+03 1.901733128630705778e+02
1.009000000000000000e+03 1.426105394190859670e+02
1.010000000000000000e+03 1.220149818257252150e+02
1.011000000000000000e+03 2.460928983436881197e+02
1.012000000000000000e+03 1.477932724066400567e+02
1.013000000000000000e+03 1.739489340248987901e+02
1.014000000000000000e+03 7.359222522821565349e+01
1.015000000000000000e+03 3.039418784232245230e+02
1.016000000000000000e+03 5.531418975103746334e+02
1.017000000000000000e+03 6.057851522821562185e+02
1.018000000000000000e+03 5.673999170124391185e+02
1.019000000000000000e+03 3.300599095238108021e+02
1.020000000000000000e+03 2.133229018672193149e+02
1.021000000000000000e+03 1.898734856846473633e+02
1.022000000000000000e+03 2.288653871369293995e+02
1.023000000000000000e+03 4.038557633540443703e+02
1.024000000000000000e+03 2.109232738589260521e+02
1.025000000000000000e+03 8.689241439834694347e+01
1.026000000000000000e+03 2.195192099585117091e+02
1.027000000000000000e+03 1.338082605186748708e+02
1.028000000000000000e+03 7.460690769709647441e+01
1.029000000000000000e+03 1.241874336099631506e+02
1.030000000000000000e+03 1.704290964730262203e+02
1.031000000000000000e+03 2.014492590062106387e+02
1.032000000000000000e+03 2.996075763485555399e+02
1.033000000000000000e+03 2.962010170124459023e+02
1.034000000000000000e+03 2.590936435684614594e+02
1.035000000000000000e+03 2.804735352697083499e+02
1.036000000000000000e+03 2.224799288381718441e+02
1.037000000000000000e+03 2.359479865145223414e+02
1.038000000000000000e+03 2.253379390041494332e+02
1.039000000000000000e+03 1.799558394190848389e+02
1.040000000000000000e+03 2.403815078838095189e+02
1.041000000000000000e+03 2.813827186722002693e+02
1.042000000000000000e+03 1.642462962240594493e+02
1.043000000000000000e+03 1.147619107883903382e+02
1.044000000000000000e+03 2.329106066390071419e+02
1.045000000000000000e+03 2.056076541493787886e+02
1.046000000000000000e+03 2.812236261410765223e+02
1.047000000000000000e+03 1.544911587137029017e+02
1.048000000000000000e+03 1.326556674948235184e+02
1.049000000000000000e+03 1.501103755186728108e+02
1.050000000000000000e+03 1.426779029045654568e+02
1.051000000000000000e+03 1.748183365145186201e+02
1.052000000000000000e+03 2.556044631470000184e+02
1.053000000000000000e+03 2.418474157676261314e+02
1.054000000000000000e+03 7.123526201245073253e+01
1.055000000000000000e+03 7.874061134854477473e+01
1.056000000000000000e+03 2.212085261410796306e+02
1.057000000000000000e+03 1.369251780083044139e+02
1.058000000000000000e+03 1.679954029045596542e+02
1.059000000000000000e+03 2.930047564315373165e+02
1.060000000000000000e+03 2.811450956521762805e+02
1.061000000000000000e+03 2.290420338174228618e+02
1.062000000000000000e+03 2.705976124481327929e+02
1.063000000000000000e+03 2.177090051867163822e+02
1.064000000000000000e+03 1.239383526970982956e+02
1.065000000000000000e+03 1.985693684647275177e+02
1.066000000000000000e+03 3.211402174273891887e+02
1.067000000000000000e+03 2.011411751037141471e+02
1.068000000000000000e+03 8.198595145228408398e+01
1.069000000000000000e+03 1.077985607883829999e+02
1.070000000000000000e+03 2.451787130705517086e+02
1.071000000000000000e+03 3.530692973029061932e+02
1.072000000000000000e+03 2.977323257261450635e+02
1.073000000000000000e+03 1.951659116182548814e+02
1.074000000000000000e+03 2.008680161825722337e+02
1.075000000000000000e+03 2.919375244813238055e+02
1.076000000000000000e+03 2.170293236514519606e+02
1.077000000000000000e+03 2.088634540372723620e+02
1.078000000000000000e+03 3.861630271784036950e+02
1.079000000000000000e+03 4.140987419087167609e+02
1.080000000000000000e+03 2.520821564315311605e+02
1.081000000000000000e+03 2.576233546583915768e+02
1.082000000000000000e+03 3.031000904564323832e+02
1.083000000000000000e+03 2.650420672199158503e+02
1.084000000000000000e+03 2.030004676348518728e+02
1.085000000000000000e+03 1.880327710144933064e+02
1.086000000000000000e+03 1.606502122406640751e+02
1.087000000000000000e+03 1.290327087136916759e+02
1.088000000000000000e+03 1.402870674273855229e+02
1.089000000000000000e+03 1.769584086956512579e+02
1.090000000000000000e+03 2.018746539419096848e+02
1.091000000000000000e+03 2.280913443983423008e+02
1.092000000000000000e+03 2.188211369294659505e+02
1.093000000000000000e+03 3.139964738589448245e+01
1.094000000000000000e+03 1.438504765145351882e+02
1.095000000000000000e+03 1.584652578838188504e+02
1.096000000000000000e+03 1.874426107883801080e+02
1.097000000000000000e+03 1.967676587136921000e+02
1.098000000000000000e+03 2.185817452282195177e+02
1.099000000000000000e+03 2.111098473029154547e+02
1.100000000000000000e+03 5.526153825726123614e+01
1.101000000000000000e+03 6.578933954357688663e+01
1.102000000000000000e+03 2.599137614107797845e+02
1.103000000000000000e+03 2.233801877593379857e+02
1.104000000000000000e+03 1.626201927385878037e+02
1.105000000000000000e+03 2.115202334024980075e+02
1.106000000000000000e+03 2.026115565217421306e+02
1.107000000000000000e+03 1.630372360995846464e+02
1.108000000000000000e+03 1.514941734439836409e+02
1.109000000000000000e+03 2.092062937759155830e+02
1.110000000000000000e+03 3.593135120082815206e+02
1.111000000000000000e+03 3.378191186721964527e+02
1.112000000000000000e+03 2.791001180497900691e+02
1.113000000000000000e+03 2.330015039419088509e+02
1.114000000000000000e+03 3.019698565217405530e+02
1.115000000000000000e+03 2.412667908713584950e+02
1.116000000000000000e+03 3.040766240663733129e+02
1.117000000000000000e+03 3.342927012448148503e+02
1.118000000000000000e+03 2.015863093167620832e+02
1.119000000000000000e+03 1.714873854771754793e+02
1.120000000000000000e+03 2.574230612033177295e+02
1.121000000000000000e+03 1.899728547717817833e+02
1.122000000000000000e+03 2.400229101449816937e+01
1.123000000000000000e+03 1.630801676348460774e+02
1.124000000000000000e+03 2.610794717842323962e+02
1.125000000000000000e+03 2.411196900414906850e+02
1.126000000000000000e+03 2.038763999999992507e+02
1.127000000000000000e+03 1.932945487551866961e+02
1.128000000000000000e+03 2.317426782157715195e+02
1.129000000000000000e+03 2.613182790456360749e+02
1.130000000000000000e+03 2.040254738589211740e+02
1.131000000000000000e+03 2.460361493775934889e+02
1.132000000000000000e+03 1.897020431535220837e+02
1.133000000000000000e+03 1.725481609958500258e+02
1.134000000000000000e+03 2.777385331950168279e+02
1.135000000000000000e+03 2.800668721991672783e+02
1.136000000000000000e+03 2.293612655601628774e+02
1.137000000000000000e+03 2.270761831950193255e+02
1.138000000000000000e+03 2.114880026970946858e+02
1.139000000000000000e+03 1.379446333333303301e+02
1.140000000000000000e+03 1.715744448132653019e+02
1.141000000000000000e+03 2.940194103734448277e+02
1.142000000000000000e+03 1.399853925311127227e+02
1.143000000000000000e+03 5.157040428571497870e+01
1.144000000000000000e+03 9.265977508298557552e+01
1.145000000000000000e+03 2.161145468879427511e+01
1.146000000000000000e+03 5.613132558092299718e+01
1.147000000000000000e+03 1.797899409937825226e+02
1.148000000000000000e+03 2.135996000000000095e+02
1.149000000000000000e+03 1.957753543568463783e+02
1.150000000000000000e+03 1.424842501245006474e+02
1.151000000000000000e+03 1.864348835403351856e+01
1.152000000000000000e+03 4.259443253734072243e+01
1.153000000000000000e+03 1.381304784232376903e+02
1.154000000000000000e+03 1.214988182572654836e+02
1.155000000000000000e+03 1.074046074688795613e+02
1.156000000000000000e+03 9.875655045643009089e+01
1.157000000000000000e+03 8.665733576763585688e+01
1.158000000000000000e+03 1.831192539419032528e+02
1.159000000000000000e+03 2.580260062240656680e+02
1.160000000000000000e+03 1.414593248962788152e+02
1.161000000000000000e+03 2.872175288382090841e+01
1.162000000000000000e+03 9.934671502074692739e+01
1.163000000000000000e+03 1.051195560166012228e+02
1.164000000000000000e+03 1.599071526970959383e+02
1.165000000000000000e+03 1.109602524896277203e+02
1.166000000000000000e+03 5.469401456431353381e+01
1.167000000000000000e+03 2.220216759336061685e+01
1.168000000000000000e+03 7.794745478260118432e+01
1.169000000000000000e+03 1.358593082987542573e+02
1.170000000000000000e+03 4.570261937758360204e+01
1.171000000000000000e+03 8.441452176348903436e+01
1.172000000000000000e+03 9.122144492753479383e+00
1.173000000000000000e+03 5.321676294606163538e+01
1.174000000000000000e+03 3.002029153527139371e+01
1.175000000000000000e+03 1.116423680497930917e+02
1.176000000000000000e+03 5.761250985477222031e+01
1.177000000000000000e+03 1.240815029045694757e+02
1.178000000000000000e+03 1.066526787136987622e+02
1.179000000000000000e+03 1.069819584232357244e+02
1.180000000000000000e+03 1.174791421324997458e+02
1.181000000000000000e+03 8.785704721991189103e+01
1.182000000000000000e+03 1.396088614107877959e+02
1.183000000000000000e+03 1.675273248962672881e+02
1.184000000000000000e+03 2.191021497925309518e+02
1.185000000000000000e+03 1.414936080912910938e+02
1.186000000000000000e+03 9.780869516597508095e+01
1.187000000000000000e+03 2.793082358921304831e+02
1.188000000000000000e+03 2.833507854771869461e+02
1.189000000000000000e+03 2.689663531120326070e+02
1.190000000000000000e+03 3.204890680497947528e+02
1.191000000000000000e+03 3.227340481327756265e+02
1.192000000000000000e+03 2.434440008298809630e+02
1.193000000000000000e+03 1.510045630705371877e+02
1.194000000000000000e+03 1.117205106431627684e+02
1.195000000000000000e+03 1.987774114107939454e+02
1.196000000000000000e+03 8.559296497925404879e+01
1.197000000000000000e+03 2.470571149068369436e+02
1.198000000000000000e+03 9.477204095436711384e+01
1.199000000000000000e+03 2.586497550207239371e+01
1.200000000000000000e+03 9.916499668050045102e+01
1.201000000000000000e+03 1.069756850931562440e+02
1.202000000000000000e+03 1.146935715767547777e+02
1.203000000000000000e+03 2.036960695020746357e+02
1.204000000000000000e+03 1.614421508298680692e+02
1.205000000000000000e+03 6.527075070539041235e+01
1.206000000000000000e+03 9.624585149377644200e+01
1.207000000000000000e+03 9.193200663900611858e+01
1.208000000000000000e+03 1.854514161825782423e+02
1.209000000000000000e+03 1.768933341614931578e+02
1.210000000000000000e+03 1.512085068464730000e+02
1.211000000000000000e+03 1.892086089211653928e+02
1.212000000000000000e+03 1.079343964730358039e+02
1.213000000000000000e+03 7.598980448132478216e+01
1.214000000000000000e+03 1.171009946058098024e+02
1.215000000000000000e+03 1.563631705394260507e+02
1.216000000000000000e+03 1.879248742738654130e+02
1.217000000000000000e+03 1.115131730848860769e+02
1.218000000000000000e+03 1.395830956431483401e+02
1.219000000000000000e+03 8.725019375518287745e+01
1.220000000000000000e+03 1.665368960580897806e+02
1.221000000000000000e+03 1.818741317427382000e+02
1.222000000000000000e+03 1.822589925311201853e+02
1.223000000000000000e+03 8.817126331950794338e+01
1.224000000000000000e+03 1.432406676763503981e+02
1.225000000000000000e+03 1.373802091286204359e+02
1.226000000000000000e+03 1.533775219254602575e+02
1.227000000000000000e+03 1.519876597510391605e+02
1.228000000000000000e+03 1.253300836099610116e+01
1.229000000000000000e+03 7.339254508298938617e+01
1.230000000000000000e+03 7.486286850622474276e+01
1.231000000000000000e+03 3.636650522821599196e+01
1.232000000000000000e+03 1.267752141078831301e+02
1.233000000000000000e+03 4.090690966805713202e+01
1.234000000000000000e+03 6.007356714285655386e+01
1.235000000000000000e+03 8.974200112033295795e+01
1.236000000000000000e+03 1.261813078838176096e+02
1.237000000000000000e+03 5.489247668050440865e+01
1.238000000000000000e+03 3.046500086956685394e+01
1.239000000000000000e+03 7.563961991701253851e+01
1.240000000000000000e+03 7.297725323651417284e+01
1.241000000000000000e+03 2.104312721161813329e+02
1.242000000000000000e+03 4.827262655601741699e+02
1.243000000000000000e+03 3.698076458505706654e+01
1.244000000000000000e+03 1.604896854771778578e+02
1.245000000000000000e+03 1.461631072614127334e+02
1.246000000000000000e+03 2.581591946058114218e+02
1.247000000000000000e+03 1.674454020746950391e+02
1.248000000000000000e+03 1.512861601659759856e+02
1.249000000000000000e+03 2.435002941908775824e+02
1.250000000000000000e+03 2.551955954356908478e+02
1.251000000000000000e+03 2.765409715767617627e+02
1.252000000000000000e+03 3.538391759336103632e+02
1.253000000000000000e+03 3.197116205394221424e+02
1.254000000000000000e+03 2.820978649377610736e+02
1.255000000000000000e+03 2.744844540372670849e+02
1.256000000000000000e+03 2.880739568464731519e+02
1.257000000000000000e+03 2.835810087136964057e+02
1.258000000000000000e+03 2.482872867219911086e+02
1.259000000000000000e+03 3.291983285714274530e+02
1.260000000000000000e+03 1.627719710166192613e+02
1.261000000000000000e+03 9.981497632779725393e+01
1.262000000000000000e+03 1.725218273858932037e+02
1.263000000000000000e+03 2.484133569358146190e+02
1.264000000000000000e+03 2.680593294605847632e+02
1.265000000000000000e+03 2.138640464730293331e+02
1.266000000000000000e+03 2.413888705394242606e+02
1.267000000000000000e+03 2.790482149068355398e+02
1.268000000000000000e+03 1.056167071576804517e+02
1.269000000000000000e+03 2.433682089211474420e+01
1.270000000000000000e+03 1.174606950207517997e+02
1.271000000000000000e+03 1.482146879917214619e+02
1.272000000000000000e+03 7.645756763485418617e+01
1.273000000000000000e+03 3.829784456431738704e+01
1.274000000000000000e+03 1.403090414937616686e+02
1.275000000000000000e+03 2.357795278008284754e+02
1.276000000000000000e+03 2.327629931535246897e+02
1.277000000000000000e+03 1.907074923236521897e+02
1.278000000000000000e+03 1.332140278008355949e+02
1.279000000000000000e+03 8.933017572614109270e+01
1.280000000000000000e+03 1.208712053941919180e+02
1.281000000000000000e+03 1.094924510373453614e+02
1.282000000000000000e+03 9.179631377593406683e+01
1.283000000000000000e+03 3.854405726141391142e+01
1.284000000000000000e+03 1.305667842323671550e+02
1.285000000000000000e+03 7.718140894190868551e+01
1.286000000000000000e+03 1.530287763485497408e+02
1.287000000000000000e+03 2.402328242738595918e+02
1.288000000000000000e+03 1.775866498964895754e+02
1.289000000000000000e+03 1.235485261410788098e+02
1.290000000000000000e+03 1.524387253112062410e+02
1.291000000000000000e+03 1.217109887136958264e+02
1.292000000000000000e+03 1.961058925466137737e+01
1.293000000000000000e+03 6.519259864315858977e+01
1.294000000000000000e+03 1.938552721991701446e+02
1.295000000000000000e+03 4.628882273865862373e+00
1.296000000000000000e+03 1.388044492753633392e+02
1.297000000000000000e+03 1.002552937759341631e+02
1.298000000000000000e+03 1.346861128630688711e+02
1.299000000000000000e+03 1.152062509543597884e+02
1.300000000000000000e+03 1.872804892753475414e+01
1.301000000000000000e+03 5.267421014522874145e+01
1.302000000000000000e+03 0.000000000000000000e+00
1.303000000000000000e+03 0.000000000000000000e+00
1.304000000000000000e+03 0.000000000000000000e+00
1.305000000000000000e+03 0.000000000000000000e+00
1.306000000000000000e+03 0.000000000000000000e+00
1.307000000000000000e+03 0.000000000000000000e+00
1.308000000000000000e+03 0.000000000000000000e+00
1.309000000000000000e+03 0.000000000000000000e+00
1.310000000000000000e+03 0.000000000000000000e+00
1.311000000000000000e+03 0.000000000000000000e+00
1.312000000000000000e+03 0.000000000000000000e+00
1.313000000000000000e+03 0.000000000000000000e+00
1.314000000000000000e+03 0.000000000000000000e+00
1.315000000000000000e+03 0.000000000000000000e+00
1.316000000000000000e+03 0.000000000000000000e+00
1.317000000000000000e+03 0.000000000000000000e+00
1.318000000000000000e+03 0.000000000000000000e+00
1.319000000000000000e+03 0.000000000000000000e+00
1.320000000000000000e+03 0.000000000000000000e+00
1.321000000000000000e+03 0.000000000000000000e+00
1.322000000000000000e+03 0.000000000000000000e+00
1.323000000000000000e+03 0.000000000000000000e+00
1.324000000000000000e+03 0.000000000000000000e+00
1.325000000000000000e+03 0.000000000000000000e+00
1.326000000000000000e+03 0.000000000000000000e+00
1.327000000000000000e+03 0.000000000000000000e+00
1.328000000000000000e+03 0.000000000000000000e+00
1.329000000000000000e+03 0.000000000000000000e+00
1.330000000000000000e+03 0.000000000000000000e+00
1.331000000000000000e+03 0.000000000000000000e+00
1.332000000000000000e+03 0.000000000000000000e+00
1.333000000000000000e+03 0.000000000000000000e+00
1.334000000000000000e+03 0.000000000000000000e+00
1.335000000000000000e+03 0.000000000000000000e+00
1.336000000000000000e+03 0.000000000000000000e+00
1.337000000000000000e+03 0.000000000000000000e+00
1.338000000000000000e+03 0.000000000000000000e+00
1.339000000000000000e+03 0.000000000000000000e+00
1.340000000000000000e+03 0.000000000000000000e+00
1.341000000000000000e+03 0.000000000000000000e+00
1.342000000000000000e+03 0.000000000000000000e+00
1.343000000000000000e+03 0.000000000000000000e+00
1.344000000000000000e+03 0.000000000000000000e+00
1.345000000000000000e+03 0.000000000000000000e+00
1.346000000000000000e+03 0.000000000000000000e+00
1.347000000000000000e+03 0.000000000000000000e+00
1.348000000000000000e+03 0.000000000000000000e+00
1.349000000000000000e+03 0.000000000000000000e+00
1.350000000000000000e+03 0.000000000000000000e+00
1.351000000000000000e+03 0.000000000000000000e+00
1.352000000000000000e+03 0.000000000000000000e+00
1.353000000000000000e+03 0.000000000000000000e+00
1.354000000000000000e+03 0.000000000000000000e+00
1.355000000000000000e+03 0.000000000000000000e+00
1.356000000000000000e+03 0.000000000000000000e+00
1.357000000000000000e+03 0.000000000000000000e+00
1.358000000000000000e+03 0.000000000000000000e+00
1.359000000000000000e+03 0.000000000000000000e+00
1.360000000000000000e+03 0.000000000000000000e+00
1.361000000000000000e+03 0.000000000000000000e+00
1.362000000000000000e+03 0.000000000000000000e+00
1.363000000000000000e+03 0.000000000000000000e+00
1.364000000000000000e+03 0.000000000000000000e+00
1.365000000000000000e+03 0.000000000000000000e+00
1.366000000000000000e+03 0.000000000000000000e+00
1.367000000000000000e+03 0.000000000000000000e+00
1.368000000000000000e+03 0.000000000000000000e+00
1.369000000000000000e+03 0.000000000000000000e+00
1.370000000000000000e+03 0.000000000000000000e+00
1.371000000000000000e+03 0.000000000000000000e+00
1.372000000000000000e+03 0.000000000000000000e+00
1.373000000000000000e+03 0.000000000000000000e+00
1.374000000000000000e+03 0.000000000000000000e+00
1.375000000000000000e+03 0.000000000000000000e+00
1.376000000000000000e+03 0.000000000000000000e+00
1.377000000000000000e+03 0.000000000000000000e+00
1.378000000000000000e+03 0.000000000000000000e+00
1.379000000000000000e+03 0.000000000000000000e+00
1.380000000000000000e+03 0.000000000000000000e+00
1.381000000000000000e+03 0.000000000000000000e+00
1.382000000000000000e+03 0.000000000000000000e+00
1.383000000000000000e+03 0.000000000000000000e+00
1.384000000000000000e+03 0.000000000000000000e+00
1.385000000000000000e+03 0.000000000000000000e+00
1.386000000000000000e+03 0.000000000000000000e+00
1.387000000000000000e+03 0.000000000000000000e+00
1.388000000000000000e+03 0.000000000000000000e+00
1.389000000000000000e+03 0.000000000000000000e+00
1.390000000000000000e+03 0.000000000000000000e+00
1.391000000000000000e+03 0.000000000000000000e+00
1.392000000000000000e+03 0.000000000000000000e+00
1.393000000000000000e+03 0.000000000000000000e+00
1.394000000000000000e+03 0.000000000000000000e+00
1.395000000000000000e+03 0.000000000000000000e+00
1.396000000000000000e+03 0.000000000000000000e+00
1.397000000000000000e+03 0.000000000000000000e+00
1.398000000000000000e+03 0.000000000000000000e+00
1.399000000000000000e+03 0.000000000000000000e+00
1.400000000000000000e+03 0.000000000000000000e+00
1.401000000000000000e+03 0.000000000000000000e+00
1.402000000000000000e+03 0.000000000000000000e+00
1.403000000000000000e+03 0.000000000000000000e+00
1.404000000000000000e+03 0.000000000000000000e+00
1.405000000000000000e+03 0.000000000000000000e+00
1.406000000000000000e+03 0.000000000000000000e+00
1.407000000000000000e+03 0.000000000000000000e+00
1.408000000000000000e+03 0.000000000000000000e+00
1.409000000000000000e+03 0.000000000000000000e+00
1.410000000000000000e+03 0.000000000000000000e+00
1.411000000000000000e+03 0.000000000000000000e+00
1.412000000000000000e+03 0.000000000000000000e+00
1.413000000000000000e+03 0.000000000000000000e+00
1.414000000000000000e+03 0.000000000000000000e+00
1.415000000000000000e+03 0.000000000000000000e+00
1.416000000000000000e+03 0.000000000000000000e+00
1.417000000000000000e+03 0.000000000000000000e+00
1.418000000000000000e+03 0.000000000000000000e+00
1.419000000000000000e+03 0.000000000000000000e+00
1.420000000000000000e+03 0.000000000000000000e+00
1.421000000000000000e+03 0.000000000000000000e+00
1.422000000000000000e+03 0.000000000000000000e+00
1.423000000000000000e+03 0.000000000000000000e+00
1.424000000000000000e+03 0.000000000000000000e+00
1.425000000000000000e+03 0.000000000000000000e+00
1.426000000000000000e+03 0.000000000000000000e+00
1.427000000000000000e+03 0.000000000000000000e+00
1.428000000000000000e+03 0.000000000000000000e+00
1.429000000000000000e+03 0.000000000000000000e+00
1.430000000000000000e+03 0.000000000000000000e+00
1.431000000000000000e+03 0.000000000000000000e+00
1.432000000000000000e+03 0.000000000000000000e+00
1.433000000000000000e+03 0.000000000000000000e+00
1.434000000000000000e+03 0.000000000000000000e+00
1.435000000000000000e+03 0.000000000000000000e+00
1.436000000000000000e+03 0.000000000000000000e+00
1.437000000000000000e+03 0.000000000000000000e+00
1.438000000000000000e+03 0.000000000000000000e+00
1.439000000000000000e+03 0.000000000000000000e+00
1.440000000000000000e+03 0.000000000000000000e+00
1.441000000000000000e+03 0.000000000000000000e+00
1.442000000000000000e+03 0.000000000000000000e+00
1.443000000000000000e+03 0.000000000000000000e+00
1.444000000000000000e+03 0.000000000000000000e+00
1.445000000000000000e+03 0.000000000000000000e+00
1.446000000000000000e+03 0.000000000000000000e+00
1.447000000000000000e+03 0.000000000000000000e+00
1.448000000000000000e+03 0.000000000000000000e+00
1.449000000000000000e+03 0.000000000000000000e+00
1.450000000000000000e+03 0.000000000000000000e+00
1.451000000000000000e+03 0.000000000000000000e+00
1.452000000000000000e+03 0.000000000000000000e+00
1.453000000000000000e+03 0.000000000000000000e+00
1.454000000000000000e+03 0.000000000000000000e+00
1.455000000000000000e+03 0.000000000000000000e+00
1.456000000000000000e+03 0.000000000000000000e+00
1.457000000000000000e+03 0.000000000000000000e+00
1.458000000000000000e+03 0.000000000000000000e+00
1.459000000000000000e+03 0.000000000000000000e+00
1.460000000000000000e+03 0.000000000000000000e+00
1.461000000000000000e+03 0.000000000000000000e+00
1.462000000000000000e+03 0.000000000000000000e+00
1.463000000000000000e+03 0.000000000000000000e+00
1.464000000000000000e+03 0.000000000000000000e+00
1.465000000000000000e+03 0.000000000000000000e+00
1.466000000000000000e+03 0.000000000000000000e+00
1.467000000000000000e+03 0.000000000000000000e+00
1.468000000000000000e+03 0.000000000000000000e+00
1.469000000000000000e+03 0.000000000000000000e+00
1.470000000000000000e+03 0.000000000000000000e+00
1.471000000000000000e+03 0.000000000000000000e+00
1.472000000000000000e+03 0.000000000000000000e+00
1.473000000000000000e+03 0.000000000000000000e+00
1.474000000000000000e+03 0.000000000000000000e+00
1.475000000000000000e+03 0.000000000000000000e+00
1.476000000000000000e+03 0.000000000000000000e+00
1.477000000000000000e+03 0.000000000000000000e+00
1.478000000000000000e+03 0.000000000000000000e+00
1.479000000000000000e+03 0.000000000000000000e+00
1.480000000000000000e+03 0.000000000000000000e+00
1.481000000000000000e+03 0.000000000000000000e+00
1.482000000000000000e+03 0.000000000000000000e+00
1.483000000000000000e+03 0.000000000000000000e+00
1.484000000000000000e+03 0.000000000000000000e+00
1.485000000000000000e+03 0.000000000000000000e+00
1.486000000000000000e+03 0.000000000000000000e+00
1.487000000000000000e+03 0.000000000000000000e+00
1.488000000000000000e+03 0.000000000000000000e+00
1.489000000000000000e+03 0.000000000000000000e+00
1.490000000000000000e+03 0.000000000000000000e+00
1.491000000000000000e+03 0.000000000000000000e+00
1.492000000000000000e+03 0.000000000000000000e+00
1.493000000000000000e+03 0.000000000000000000e+00
1.494000000000000000e+03 0.000000000000000000e+00
1.495000000000000000e+03 0.000000000000000000e+00
1.496000000000000000e+03 0.000000000000000000e+00
1.497000000000000000e+03 0.000000000000000000e+00
1.498000000000000000e+03 0.000000000000000000e+00
1.499000000000000000e+03 0.000000000000000000e+00
1.500000000000000000e+03 0.000000000000000000e+00
