1.010000000000000000e+02 0.000000000000000000e+00
1.020000000000000000e+02 0.000000000000000000e+00
1.030000000000000000e+02 0.000000000000000000e+00
1.040000000000000000e+02 0.000000000000000000e+00
1.050000000000000000e+02 0.000000000000000000e+00
1.060000000000000000e+02 0.000000000000000000e+00
1.070000000000000000e+02 0.000000000000000000e+00
1.080000000000000000e+02 0.000000000000000000e+00
1.090000000000000000e+02 0.000000000000000000e+00
1.100000000000000000e+02 0.000000000000000000e+00
1.110000000000000000e+02 0.000000000000000000e+00
1.120000000000000000e+02 0.000000000000000000e+00
1.130000000000000000e+02 0.000000000000000000e+00
1.140000000000000000e+02 0.000000000000000000e+00
1.150000000000000000e+02 0.000000000000000000e+00
1.160000000000000000e+02 0.000000000000000000e+00
1.170000000000000000e+02 0.000000000000000000e+00
1.180000000000000000e+02 0.000000000000000000e+00
1.190000000000000000e+02 0.000000000000000000e+00
1.200000000000000000e+02 0.000000000000000000e+00
1.210000000000000000e+02 0.000000000000000000e+00
1.220000000000000000e+02 0.000000000000000000e+00
1.230000000000000000e+02 0.000000000000000000e+00
1.240000000000000000e+02 0.000000000000000000e+00
1.250000000000000000e+02 0.000000000000000000e+00
1.260000000000000000e+02 0.000000000000000000e+00
1.270000000000000000e+02 0.000000000000000000e+00
1.280000000000000000e+02 0.000000000000000000e+00
1.290000000000000000e+02 0.000000000000000000e+00
1.300000000000000000e+02 0.000000000000000000e+00
1.310000000000000000e+02 0.000000000000000000e+00
1.320000000000000000e+02 0.000000000000000000e+00
1.330000000000000000e+02 0.000000000000000000e+00
1.340000000000000000e+02 0.000000000000000000e+00
1.350000000000000000e+02 0.000000000000000000e+00
1.360000000000000000e+02 0.000000000000000000e+00
1.370000000000000000e+02 0.000000000000000000e+00
1.380000000000000000e+02 0.000000000000000000e+00
1.390000000000000000e+02 0.000000000000000000e+00
1.400000000000000000e+02 0.000000000000000000e+00
1.410000000000000000e+02 1.072308141464392850e-01
1.420000000000000000e+02 5.760705025637934129e-02
1.430000000000000000e+02 8.278087349647487159e-01
1.440000000000000000e+02 8.092236807716249869e-01
1.450000000000000000e+02 1.359475641982996474e-01
1.460000000000000000e+02 6.332364862062897504e-02
1.470000000000000000e+02 1.084191811242489978e+00
1.480000000000000000e+02 2.364535286247666956e+00
1.490000000000000000e+02 1.954184019912889259e+00
1.500000000000000000e+02 1.108323527069074110e+00
1.510000000000000000e+02 8.453779724123644534e-01
1.520000000000000000e+02 1.323174624351794781e+00
1.530000000000000000e+02 2.186805484754196449e+00
1.540000000000000000e+02 2.303947797137531062e+00
1.550000000000000000e+02 2.808764568346832746e+00
1.560000000000000000e+02 4.872661683675591604e+00
1.570000000000000000e+02 2.958468771624148008e+00
1.580000000000000000e+02 2.085627999377722031e+00
1.590000000000000000e+02 2.730523594275057420e+00
1.600000000000000000e+02 3.203288693280789357e+00
1.610000000000000000e+02 2.204582082140635446e+00
1.620000000000000000e+02 2.801137627878024894e+00
1.630000000000000000e+02 3.374784224388222231e+00
1.640000000000000000e+02 3.311068796515250323e+00
1.650000000000000000e+02 4.378339215308029608e+00
1.660000000000000000e+02 6.204957808585638723e+00
1.670000000000000000e+02 7.437905431860600380e+00
1.680000000000000000e+02 7.222237765608784166e+00
1.690000000000000000e+02 5.506984904584101059e+00
1.700000000000000000e+02 3.320477710640953983e+00
1.710000000000000000e+02 1.500205469819555049e+00
1.720000000000000000e+02 8.402200298631338216e-01
1.730000000000000000e+02 1.216262568346814676e+00
1.740000000000000000e+02 8.100711381456132676e-01
1.750000000000000000e+02 2.981590408544204651e-01
1.760000000000000000e+02 1.388479160479132446e-01
1.770000000000000000e+02 3.008213737813713040e-01
1.780000000000000000e+02 8.872139372708447158e-02
1.790000000000000000e+02 3.734264895249935767e-01
1.800000000000000000e+02 1.836929427535836379e-01
1.810000000000000000e+02 4.192004321546981271e-02
1.820000000000000000e+02 2.408951329599673952e-01
1.830000000000000000e+02 2.701573918274218777e-01
1.840000000000000000e+02 1.009129442488599371e-01
1.850000000000000000e+02 2.656552457996292915e-01
1.860000000000000000e+02 1.550823192698613573e+00
1.870000000000000000e+02 1.923112026757934245e+00
1.880000000000000000e+02 1.674504470441820381e+00
1.890000000000000000e+02 1.296282948350966358e+00
1.900000000000000000e+02 1.405970387056632021e+00
1.910000000000000000e+02 2.321375012652976633e+00
1.920000000000000000e+02 2.376116672889442949e+00
1.930000000000000000e+02 2.361908856876167029e+00
1.940000000000000000e+02 2.509216253889235748e+00
1.950000000000000000e+02 2.786220234598633105e+00
1.960000000000000000e+02 3.744588154117397316e+00
1.970000000000000000e+02 4.455524387471473169e+00
1.980000000000000000e+02 4.899582683260739202e+00
1.990000000000000000e+02 5.228052653391412896e+00
2.000000000000000000e+02 5.414591896701927531e+00
2.010000000000000000e+02 6.629490705516372095e+00
2.020000000000000000e+02 7.869202368595738406e+00
2.030000000000000000e+02 9.108791692594907730e+00
2.040000000000000000e+02 1.095262579427623351e+01
2.050000000000000000e+02 1.314671570006221124e+01
2.060000000000000000e+02 1.543985383115536614e+01
2.070000000000000000e+02 1.588415203649936913e+01
2.080000000000000000e+02 1.348447072184193907e+01
2.090000000000000000e+02 9.489581483094811531e+00
2.100000000000000000e+02 7.241046752799687347e+00
2.110000000000000000e+02 5.541567587844827614e+00
2.120000000000000000e+02 4.140898202240194337e+00
2.130000000000000000e+02 3.875561084007468349e+00
2.140000000000000000e+02 3.658338549056215250e+00
2.150000000000000000e+02 3.263761341630360580e+00
2.160000000000000000e+02 2.952571594482472861e+00
2.170000000000000000e+02 3.131752454262600516e+00
2.180000000000000000e+02 3.442050805019702953e+00
2.190000000000000000e+02 3.946572430526752662e+00
2.200000000000000000e+02 4.734515263430830956e+00
2.210000000000000000e+02 5.421173606720597782e+00
2.220000000000000000e+02 5.568461001244293662e+00
2.230000000000000000e+02 6.910562986102448235e+00
2.240000000000000000e+02 7.609491537440366216e+00
2.250000000000000000e+02 8.177695994608047414e+00
2.260000000000000000e+02 9.758213813316727325e+00
2.270000000000000000e+02 1.277277273802113555e+01
2.280000000000000000e+02 1.434424124870360018e+01
2.290000000000000000e+02 1.576075723916200921e+01
2.300000000000000000e+02 1.754996243310516491e+01
2.310000000000000000e+02 1.897131836963284002e+01
2.320000000000000000e+02 2.062305297863513687e+01
2.330000000000000000e+02 2.170870420037337212e+01
2.340000000000000000e+02 2.267710130470856456e+01
2.350000000000000000e+02 2.431083204729307923e+01
2.360000000000000000e+02 2.669364440572492470e+01
2.370000000000000000e+02 2.879563298485792799e+01
2.380000000000000000e+02 3.034154372329392402e+01
2.390000000000000000e+02 3.238087266334784431e+01
2.400000000000000000e+02 3.678579660858738976e+01
2.410000000000000000e+02 4.021870109105999092e+01
2.420000000000000000e+02 4.495651392783080524e+01
2.430000000000000000e+02 5.089481314665005129e+01
2.440000000000000000e+02 5.714393314250150269e+01
2.450000000000000000e+02 6.330111322687680087e+01
2.460000000000000000e+02 6.832380958722259834e+01
2.470000000000000000e+02 6.824501853142501773e+01
2.480000000000000000e+02 6.146873559311496393e+01
2.490000000000000000e+02 4.955083061605467520e+01
2.500000000000000000e+02 3.684655942750455182e+01
2.510000000000000000e+02 2.558703313977601823e+01
2.520000000000000000e+02 1.734145620825558609e+01
2.530000000000000000e+02 1.242812546359680859e+01
2.540000000000000000e+02 8.795463822650878782e+00
2.550000000000000000e+02 6.624177374196221102e+00
2.560000000000000000e+02 6.202187247666458347e+00
2.570000000000000000e+02 6.374956125673993945e+00
2.580000000000000000e+02 5.509503596141871462e+00
2.590000000000000000e+02 5.242288278780333322e+00
2.600000000000000000e+02 4.024792749066749664e+00
2.610000000000000000e+02 2.484422508608146618e+00
2.620000000000000000e+02 1.299995040448021388e+00
2.630000000000000000e+02 1.362135639268047260e-01
2.640000000000000000e+02 4.528706988136012301e-02
2.650000000000000000e+02 3.505077696824460132e-01
2.660000000000000000e+02 9.211359195354561491e-01
2.670000000000000000e+02 1.053932845052901968e+00
2.680000000000000000e+02 4.751978292885424282e-01
2.690000000000000000e+02 4.721832047293023082e-02
2.700000000000000000e+02 1.069052618091657358e-01
2.710000000000000000e+02 4.868009881767200175e-01
2.720000000000000000e+02 6.019152426882364848e-01
2.730000000000000000e+02 7.435217172785708595e-01
2.740000000000000000e+02 7.847522459560243302e-01
2.750000000000000000e+02 8.206562903961992506e-01
2.760000000000000000e+02 2.299504497199758912e+00
2.770000000000000000e+02 2.540860388842808515e+00
2.780000000000000000e+02 3.515816431860639302e+00
2.790000000000000000e+02 5.374317881974726596e+00
2.800000000000000000e+02 7.875695870358787154e+00
2.810000000000000000e+02 1.084304319228369096e+01
2.820000000000000000e+02 1.430528871395984858e+01
2.830000000000000000e+02 1.807647074465873516e+01
2.840000000000000000e+02 2.129288528935900970e+01
2.850000000000000000e+02 2.366190829495949544e+01
2.860000000000000000e+02 2.592771448039824733e+01
2.870000000000000000e+02 2.811829057664382958e+01
2.880000000000000000e+02 3.181255486828451851e+01
2.890000000000000000e+02 3.531450614187929204e+01
2.900000000000000000e+02 3.718874263845675188e+01
2.910000000000000000e+02 4.074936454677450115e+01
2.920000000000000000e+02 4.594784288529358207e+01
2.930000000000000000e+02 5.178492383530392829e+01
2.940000000000000000e+02 5.811404899211948560e+01
2.950000000000000000e+02 6.585975363410102545e+01
2.960000000000000000e+02 7.641879234391225850e+01
2.970000000000000000e+02 8.960312703857323413e+01
2.980000000000000000e+02 1.035448313627874484e+02
2.990000000000000000e+02 1.163055060983201656e+02
3.000000000000000000e+02 1.261547594151804503e+02
3.010000000000000000e+02 1.259355570421075328e+02
3.020000000000000000e+02 1.140043093549059989e+02
3.030000000000000000e+02 9.460467177934486926e+01
3.040000000000000000e+02 7.317249571873074387e+01
3.050000000000000000e+02 5.405044080688679031e+01
3.060000000000000000e+02 4.054731789506423212e+01
3.070000000000000000e+02 3.086956642605268542e+01
3.080000000000000000e+02 2.364158444928441227e+01
3.090000000000000000e+02 1.853121680771618074e+01
3.100000000000000000e+02 1.495546974071766755e+01
3.110000000000000000e+02 1.261992941091059350e+01
3.120000000000000000e+02 1.011295147376055681e+01
3.130000000000000000e+02 7.130250710018620097e+00
3.140000000000000000e+02 5.010899821406329835e+00
3.150000000000000000e+02 4.909599593652762550e+00
3.160000000000000000e+02 4.183456112217347034e+00
3.170000000000000000e+02 3.126372210952069963e+00
3.180000000000000000e+02 2.566323194772877958e+00
3.190000000000000000e+02 1.881016051026773273e+00
3.200000000000000000e+02 1.136919889672350026e+00
3.210000000000000000e+02 7.832501520431449649e-01
3.220000000000000000e+02 7.488288438083385845e-01
3.230000000000000000e+02 7.348936430941513942e-01
3.240000000000000000e+02 7.261178328147686045e-01
3.250000000000000000e+02 5.555041207218436305e-01
3.260000000000000000e+02 3.606534549429719072e-01
3.270000000000000000e+02 1.314903103920348482e+00
3.280000000000000000e+02 1.025736392034846567e+00
3.290000000000000000e+02 1.021559215470760673e+00
3.300000000000000000e+02 1.290512660029046188e+00
3.310000000000000000e+02 8.344737181082626520e-01
3.320000000000000000e+02 1.289986723351337072e-01
3.330000000000000000e+02 2.426134037896653106e-02
3.340000000000000000e+02 4.647177334577874408e-01
3.350000000000000000e+02 2.899875691765029795e-01
3.360000000000000000e+02 5.941023217174858928e-01
3.370000000000000000e+02 1.409378488487860848e+00
3.380000000000000000e+02 1.330145880315289908e+00
3.390000000000000000e+02 9.475202989006462628e-01
3.400000000000000000e+02 1.010922058494080567e+00
3.410000000000000000e+02 1.418061133817422936e+00
3.420000000000000000e+02 1.858011592615637753e+00
3.430000000000000000e+02 2.587056037544070541e+00
3.440000000000000000e+02 3.684508199128793571e+00
3.450000000000000000e+02 4.243001615432484108e+00
3.460000000000000000e+02 4.656062246836754959e+00
3.470000000000000000e+02 5.919468501244288916e+00
3.480000000000000000e+02 7.378280676830552665e+00
3.490000000000000000e+02 8.847203408836350036e+00
3.500000000000000000e+02 9.343248143508914083e+00
3.510000000000000000e+02 9.454558752955842138e+00
3.520000000000000000e+02 1.097403211574365578e+01
3.530000000000000000e+02 1.325242183326419898e+01
3.540000000000000000e+02 1.548311282513995835e+01
3.550000000000000000e+02 1.721218689690939030e+01
3.560000000000000000e+02 1.864719202820405997e+01
3.570000000000000000e+02 2.041265529973031079e+01
3.580000000000000000e+02 2.267509076540131474e+01
3.590000000000000000e+02 2.560163161551221833e+01
3.600000000000000000e+02 2.821597008504457804e+01
3.610000000000000000e+02 3.060058550508188091e+01
3.620000000000000000e+02 3.452737751296414359e+01
3.630000000000000000e+02 3.859807960174237706e+01
3.640000000000000000e+02 4.336208100601532323e+01
3.650000000000000000e+02 4.932660934660868435e+01
3.660000000000000000e+02 5.633401604231493565e+01
3.670000000000000000e+02 6.350386906658372510e+01
3.680000000000000000e+02 7.263057607342896915e+01
3.690000000000000000e+02 8.116052225471906922e+01
3.700000000000000000e+02 9.045658656917665041e+01
3.710000000000000000e+02 1.020554248247248665e+02
3.720000000000000000e+02 1.133828196017425824e+02
3.730000000000000000e+02 1.245845458825972116e+02
3.740000000000000000e+02 1.361965045633684213e+02
3.750000000000000000e+02 1.483565680771621373e+02
3.760000000000000000e+02 1.608511603691411551e+02
3.770000000000000000e+02 1.725778634100807949e+02
3.780000000000000000e+02 1.854675313627876108e+02
3.790000000000000000e+02 1.994252723351305292e+02
3.800000000000000000e+02 2.149480660651317407e+02
3.810000000000000000e+02 2.322614892345985425e+02
3.820000000000000000e+02 2.488700763376193379e+02
3.830000000000000000e+02 2.680600227338728132e+02
3.840000000000000000e+02 2.853147212196640226e+02
3.850000000000000000e+02 3.003989565740359353e+02
3.860000000000000000e+02 3.142715827629124306e+02
3.870000000000000000e+02 3.171402944617299227e+02
3.880000000000000000e+02 3.168589977805435751e+02
3.890000000000000000e+02 3.087566635552785783e+02
3.900000000000000000e+02 2.912826915992528143e+02
3.910000000000000000e+02 2.685705579340389022e+02
3.920000000000000000e+02 2.462627431238337010e+02
3.930000000000000000e+02 2.217496805019711985e+02
3.940000000000000000e+02 1.988687891516284481e+02
3.950000000000000000e+02 1.806788092097077367e+02
3.960000000000000000e+02 1.672161618336446907e+02
3.970000000000000000e+02 1.566278480398257500e+02
3.980000000000000000e+02 1.482671111802530959e+02
3.990000000000000000e+02 1.424802906658370034e+02
4.000000000000000000e+02 1.378735304915992117e+02
4.010000000000000000e+02 1.322262914747977334e+02
4.020000000000000000e+02 1.256542687681459824e+02
4.030000000000000000e+02 1.152270479568551877e+02
4.040000000000000000e+02 1.020063134100806934e+02
4.050000000000000000e+02 8.843205974284531123e+01
4.060000000000000000e+02 7.743968093963914612e+01
4.070000000000000000e+02 6.955530822443461147e+01
4.080000000000000000e+02 6.378635446702612910e+01
4.090000000000000000e+02 5.849821656502811607e+01
4.100000000000000000e+02 5.500552481435390462e+01
4.110000000000000000e+02 5.562019029448362062e+01
4.120000000000000000e+02 5.725576154324826916e+01
4.130000000000000000e+02 5.862046543248286667e+01
4.140000000000000000e+02 6.111802108668602784e+01
4.150000000000000000e+02 6.515690269861022443e+01
4.160000000000000000e+02 6.967400219663966254e+01
4.170000000000000000e+02 7.384359365484343130e+01
4.180000000000000000e+02 7.758233899813318146e+01
4.190000000000000000e+02 7.829046619373573890e+01
4.200000000000000000e+02 7.459484473138340377e+01
4.210000000000000000e+02 6.761866436631393640e+01
4.220000000000000000e+02 6.114073789670187153e+01
4.230000000000000000e+02 5.277246355320465199e+01
4.240000000000000000e+02 4.443017006015331560e+01
4.250000000000000000e+02 3.716431661273582421e+01
4.260000000000000000e+02 3.102243841734090779e+01
4.270000000000000000e+02 2.724271073428758072e+01
4.280000000000000000e+02 2.314330575902104670e+01
4.290000000000000000e+02 1.909548221115954902e+01
4.300000000000000000e+02 1.579414132959970551e+01
4.310000000000000000e+02 1.345717520945669676e+01
4.320000000000000000e+02 1.102050399502178379e+01
4.330000000000000000e+02 9.400860104957487806e+00
4.340000000000000000e+02 8.432258252592287562e+00
4.350000000000000000e+02 7.011642079029232200e+00
4.360000000000000000e+02 4.814288539514621768e+00
4.370000000000000000e+02 3.643180998340927790e+00
4.380000000000000000e+02 3.639925840904380649e+00
4.390000000000000000e+02 2.892469787803347625e+00
4.400000000000000000e+02 1.607568108276286267e+00
4.410000000000000000e+02 7.395216957062666907e-01
4.420000000000000000e+02 2.538711404272962491e-01
4.430000000000000000e+02 2.453006192451240575e-01
4.440000000000000000e+02 5.939907133374504600e-01
4.450000000000000000e+02 1.627626925326711937e+00
4.460000000000000000e+02 1.755994221899617624e+00
4.470000000000000000e+02 8.576128270068535953e-01
4.480000000000000000e+02 1.189865531632432250e+00
4.490000000000000000e+02 1.025667616963923168e+00
4.500000000000000000e+02 2.283879389894286072e-01
4.510000000000000000e+02 2.360974702343926757e-01
4.520000000000000000e+02 5.038967934467035725e-01
4.530000000000000000e+02 8.558560045529869931e-02
4.540000000000000000e+02 4.415235108898558636e-01
4.550000000000000000e+02 8.888794934660967373e-01
4.560000000000000000e+02 1.580759955610876677e+00
4.570000000000000000e+02 2.277527687824106195e+00
4.580000000000000000e+02 2.907895519809178708e+00
4.590000000000000000e+02 3.152961100186687737e+00
4.600000000000000000e+02 3.887944899191056791e+00
4.610000000000000000e+02 5.004914356772435013e+00
4.620000000000000000e+02 5.673147818917238183e+00
4.630000000000000000e+02 6.268120474175497669e+00
4.640000000000000000e+02 7.180156756067189505e+00
4.650000000000000000e+02 8.430842362580349914e+00
4.660000000000000000e+02 1.005225501078609796e+01
4.670000000000000000e+02 1.189817295581828382e+01
4.680000000000000000e+02 1.322659993777222986e+01
4.690000000000000000e+02 1.542523509746989596e+01
4.700000000000000000e+02 1.724603015764364500e+01
4.710000000000000000e+02 1.869014633063679298e+01
4.720000000000000000e+02 2.018389184778100187e+01
4.730000000000000000e+02 2.178388889234600256e+01
4.740000000000000000e+02 2.313270395768513765e+01
4.750000000000000000e+02 2.593839966403986352e+01
4.760000000000000000e+02 2.843791922007885020e+01
4.770000000000000000e+02 2.946079131300561471e+01
4.780000000000000000e+02 3.063482226669429664e+01
4.790000000000000000e+02 3.258961244140223101e+01
4.800000000000000000e+02 3.311100598630989111e+01
4.810000000000000000e+02 3.355012043135626953e+01
4.820000000000000000e+02 3.396852598008712931e+01
4.830000000000000000e+02 3.285615051234188400e+01
4.840000000000000000e+02 3.098381011823274278e+01
4.850000000000000000e+02 2.927773386226925822e+01
4.860000000000000000e+02 2.730303639701310559e+01
4.870000000000000000e+02 2.483804462352208375e+01
4.880000000000000000e+02 2.175632301389753920e+01
4.890000000000000000e+02 1.776999013275256800e+01
4.900000000000000000e+02 1.521335956233144238e+01
4.910000000000000000e+02 1.304023752333539221e+01
4.920000000000000000e+02 1.076797780128603677e+01
4.930000000000000000e+02 8.967960572080455606e+00
4.940000000000000000e+02 8.201655231072376040e+00
4.950000000000000000e+02 5.690413832607315037e+00
4.960000000000000000e+02 4.576817481642822649e+00
4.970000000000000000e+02 3.765758170296586549e+00
4.980000000000000000e+02 2.760459839485688072e+00
4.990000000000000000e+02 2.628261601327529284e+00
5.000000000000000000e+02 2.376373986932178273e+00
5.010000000000000000e+02 2.172940736623805158e+00
5.020000000000000000e+02 1.900626562746321913e+00
5.030000000000000000e+02 1.173878550093360174e+00
5.040000000000000000e+02 1.389267822480332593e-01
5.050000000000000000e+02 1.407962498033600851e-01
5.060000000000000000e+02 3.328736876166756842e-01
5.070000000000000000e+02 4.244279222314394362e-01
5.080000000000000000e+02 3.941325021779709670e-01
5.090000000000000000e+02 4.377773018046056119e-01
5.100000000000000000e+02 7.305701082762851017e-01
5.110000000000000000e+02 2.200526930421024263e-01
5.120000000000000000e+02 4.775243526239422165e-01
5.130000000000000000e+02 6.651019085252036778e-01
5.140000000000000000e+02 7.227549763534489857e-01
5.150000000000000000e+02 1.198545729516695246e+00
5.160000000000000000e+02 1.393212790914752697e+00
5.170000000000000000e+02 2.608715954781181789e+00
5.180000000000000000e+02 2.568218551960162799e+00
5.190000000000000000e+02 1.992736530180457155e+00
5.200000000000000000e+02 2.566661900643050220e+00
5.210000000000000000e+02 4.339679697573166628e+00
5.220000000000000000e+02 4.875232191454068165e+00
5.230000000000000000e+02 4.940311069695087376e+00
5.240000000000000000e+02 5.046004898175039166e+00
5.250000000000000000e+02 5.629886227131248866e+00
5.260000000000000000e+02 7.129212414436783440e+00
5.270000000000000000e+02 8.416752141849896063e+00
5.280000000000000000e+02 9.132725208462964872e+00
5.290000000000000000e+02 1.007727664799831935e+01
5.300000000000000000e+02 1.117479665906262731e+01
5.310000000000000000e+02 1.223006372744244885e+01
5.320000000000000000e+02 1.415391686994400544e+01
5.330000000000000000e+02 1.582053894649526526e+01
5.340000000000000000e+02 1.697323383737816371e+01
5.350000000000000000e+02 1.826506975731179949e+01
5.360000000000000000e+02 2.021865097282733359e+01
5.370000000000000000e+02 2.285907248288747340e+01
5.380000000000000000e+02 2.561924344741761672e+01
5.390000000000000000e+02 2.786576616884454793e+01
5.400000000000000000e+02 3.007382735739480850e+01
5.410000000000000000e+02 3.261763066583702653e+01
5.420000000000000000e+02 3.539026391412564720e+01
5.430000000000000000e+02 3.799354434971991878e+01
5.440000000000000000e+02 4.049212938809380802e+01
5.450000000000000000e+02 4.247504578303256295e+01
5.460000000000000000e+02 4.506794207840696487e+01
5.470000000000000000e+02 4.847043447832398755e+01
5.480000000000000000e+02 5.099800170504048680e+01
5.490000000000000000e+02 5.014254049989626338e+01
5.500000000000000000e+02 5.032037094151804268e+01
5.510000000000000000e+02 4.933796776602358847e+01
5.520000000000000000e+02 4.691386838000409654e+01
5.530000000000000000e+02 4.409458727913725085e+01
5.540000000000000000e+02 4.116511788840482211e+01
5.550000000000000000e+02 3.751094925948967784e+01
5.560000000000000000e+02 3.286670837411853796e+01
5.570000000000000000e+02 2.882855916822230213e+01
5.580000000000000000e+02 2.544611158473342272e+01
5.590000000000000000e+02 2.181860092285353758e+01
5.600000000000000000e+02 2.025163904169260576e+01
5.610000000000000000e+02 1.629526152872851341e+01
5.620000000000000000e+02 1.333159778100369586e+01
5.630000000000000000e+02 1.154301183986722634e+01
5.640000000000000000e+02 9.859928060360921620e+00
5.650000000000000000e+02 9.306729045426244795e+00
5.660000000000000000e+02 8.155741517112623740e+00
5.670000000000000000e+02 6.614776246007056493e+00
5.680000000000000000e+02 5.122295164281252866e+00
5.690000000000000000e+02 4.357964128811450344e+00
5.700000000000000000e+02 4.394347500518565042e+00
5.710000000000000000e+02 3.945166589919096634e+00
5.720000000000000000e+02 2.393380852727651664e+00
5.730000000000000000e+02 1.518358000622281434e+00
5.740000000000000000e+02 1.762189774113257945e+00
5.750000000000000000e+02 1.944353418377931408e+00
5.760000000000000000e+02 7.955139943995178653e-01
5.770000000000000000e+02 4.309721736154322747e-01
5.780000000000000000e+02 1.520425709197248954e-01
5.790000000000000000e+02 1.514896827042700178e-01
5.800000000000000000e+02 1.391592207010991511e-01
5.810000000000000000e+02 2.954131958100003619e-01
5.820000000000000000e+02 4.586543609850550485e-02
5.830000000000000000e+02 5.136518214063436893e-01
5.840000000000000000e+02 4.266659458618622947e-01
5.850000000000000000e+02 1.233728067984255217e-01
5.860000000000000000e+02 2.820236189587170261e-01
5.870000000000000000e+02 7.635120373366444113e-01
5.880000000000000000e+02 8.121403109313437563e-01
5.890000000000000000e+02 6.226165573532562725e-01
5.900000000000000000e+02 9.288680889939474050e-02
5.910000000000000000e+02 3.457099421281865093e-01
5.920000000000000000e+02 2.774629478670520566e-01
5.930000000000000000e+02 2.294353030491602385e-01
5.940000000000000000e+02 5.197415892968263451e-01
5.950000000000000000e+02 2.076941271599261618e-01
5.960000000000000000e+02 4.727864841319384670e-02
5.970000000000000000e+02 3.059693018046149016e-01
5.980000000000000000e+02 4.277847637419528448e-01
5.990000000000000000e+02 6.435110565419392692e-02
6.000000000000000000e+02 8.569848699440409945e-01
6.010000000000000000e+02 1.384796579842380471e+00
6.020000000000000000e+02 1.058767636382523802e+00
6.030000000000000000e+02 8.738669948143175104e-01
6.040000000000000000e+02 1.374417219663977230e+00
6.050000000000000000e+02 1.208619999377708698e+00
6.060000000000000000e+02 2.034816672059724052e+00
6.070000000000000000e+02 2.038558521883429453e+00
6.080000000000000000e+02 1.373883722049371814e+00
6.090000000000000000e+02 1.224369255756062147e+00
6.100000000000000000e+02 1.983507587430004326e+00
6.110000000000000000e+02 2.324284349097697877e+00
6.120000000000000000e+02 1.652332034847532105e+00
6.130000000000000000e+02 1.849262043766881414e+00
6.140000000000000000e+02 2.193850270690727022e+00
6.150000000000000000e+02 2.357076925534133949e+00
6.160000000000000000e+02 2.848089539929462344e+00
6.170000000000000000e+02 2.437815813316724256e+00
6.180000000000000000e+02 2.240945332227272768e+00
6.190000000000000000e+02 1.577051191039225531e+00
6.200000000000000000e+02 1.922648817050346848e+00
6.210000000000000000e+02 2.851070469099976634e+00
6.220000000000000000e+02 2.074067609831991010e+00
6.230000000000000000e+02 1.915379424393278240e+00
6.240000000000000000e+02 2.237914082123599879e+00
6.250000000000000000e+02 2.158279927193524461e+00
6.260000000000000000e+02 2.128824535988386391e+00
6.270000000000000000e+02 2.536254522397357380e+00
6.280000000000000000e+02 2.857415794026136435e+00
6.290000000000000000e+02 2.285460453640306699e+00
6.300000000000000000e+02 3.058107561086959247e+00
6.310000000000000000e+02 3.721345234391208123e+00
6.320000000000000000e+02 3.383544720597354782e+00
6.330000000000000000e+02 2.811708981331652257e+00
6.340000000000000000e+02 3.239812316324425456e+00
6.350000000000000000e+02 2.751221816220692951e+00
6.360000000000000000e+02 3.219727666251799736e+00
6.370000000000000000e+02 4.062912011823257785e+00
6.380000000000000000e+02 4.181259232731812325e+00
6.390000000000000000e+02 4.051232809790501932e+00
6.400000000000000000e+02 5.163710579755238506e+00
6.410000000000000000e+02 4.077567011200994074e+00
6.420000000000000000e+02 3.971290308649669587e+00
6.430000000000000000e+02 5.437631011408466719e+00
6.440000000000000000e+02 6.412524305267515601e+00
6.450000000000000000e+02 5.993458738643424155e+00
6.460000000000000000e+02 5.949695487243328529e+00
6.470000000000000000e+02 6.953992974699316321e+00
6.480000000000000000e+02 7.828454520431468389e+00
6.490000000000000000e+02 8.668232991080705219e+00
6.500000000000000000e+02 9.079284497304019652e+00
6.510000000000000000e+02 9.069440001244549521e+00
6.520000000000000000e+02 9.862078759593467581e+00
6.530000000000000000e+02 1.184272134384077191e+01
6.540000000000000000e+02 1.106459597179009080e+01
6.550000000000000000e+02 1.118311627878033043e+01
6.560000000000000000e+02 1.296563722936544316e+01
6.570000000000000000e+02 1.469271890271729042e+01
6.580000000000000000e+02 1.543140220493673986e+01
6.590000000000000000e+02 1.628155573325038574e+01
6.600000000000000000e+02 1.739866794648415294e+01
6.610000000000000000e+02 1.945835784484547659e+01
6.620000000000000000e+02 2.095688125907488342e+01
6.630000000000000000e+02 2.146148217589712814e+01
6.640000000000000000e+02 2.312365765401369089e+01
6.650000000000000000e+02 2.499228612321098097e+01
6.660000000000000000e+02 2.695026110765402549e+01
6.670000000000000000e+02 2.874391295581828842e+01
6.680000000000000000e+02 3.079595399709601722e+01
6.690000000000000000e+02 3.281767728064717460e+01
6.700000000000000000e+02 3.379423029869320771e+01
6.710000000000000000e+02 3.531086889856877065e+01
6.720000000000000000e+02 3.668344596764156762e+01
6.730000000000000000e+02 3.871451486520113860e+01
6.740000000000000000e+02 4.097902934038582146e+01
6.750000000000000000e+02 4.266870713544906835e+01
6.760000000000000000e+02 4.372736085856490007e+01
6.770000000000000000e+02 4.493339196432275173e+01
6.780000000000000000e+02 4.571100547604230258e+01
6.790000000000000000e+02 4.733648626503524781e+01
6.800000000000000000e+02 4.871170157436216641e+01
6.810000000000000000e+02 4.834824624766647361e+01
6.820000000000000000e+02 4.708235542098714177e+01
6.830000000000000000e+02 4.875575794026133991e+01
6.840000000000000000e+02 4.841181461315081691e+01
6.850000000000000000e+02 4.763919117403028025e+01
6.860000000000000000e+02 4.695554753578095131e+01
6.870000000000000000e+02 4.589305605476042160e+01
6.880000000000000000e+02 4.423501871810828590e+01
6.890000000000000000e+02 4.271516425845263143e+01
6.900000000000000000e+02 4.104186890271722632e+01
6.910000000000000000e+02 3.874943790292473267e+01
6.920000000000000000e+02 3.603823749844436009e+01
6.930000000000000000e+02 3.307535818502395131e+01
6.940000000000000000e+02 3.070737185023855886e+01
6.950000000000000000e+02 2.980708680356775631e+01
6.960000000000000000e+02 2.632726049159937887e+01
6.970000000000000000e+02 2.364351562538896445e+01
6.980000000000000000e+02 2.237892088363412313e+01
6.990000000000000000e+02 2.119599818747411746e+01
7.000000000000000000e+02 1.922594811449906871e+01
7.010000000000000000e+02 1.715390897946484472e+01
7.020000000000000000e+02 1.589186054334304643e+01
7.030000000000000000e+02 1.491975862684088483e+01
7.040000000000000000e+02 1.402695180460483471e+01
7.050000000000000000e+02 1.269046978846957252e+01
7.060000000000000000e+02 1.122480738021160818e+01
7.070000000000000000e+02 1.044568589919101420e+01
7.080000000000000000e+02 1.005515744773954623e+01
7.090000000000000000e+02 8.816089610869164872e+00
7.100000000000000000e+02 7.660205364654681937e+00
7.110000000000000000e+02 6.950849252644692555e+00
7.120000000000000000e+02 6.437192053723310714e+00
7.130000000000000000e+02 5.902374842563793855e+00
7.140000000000000000e+02 5.509197341630371447e+00
7.150000000000000000e+02 4.898060803982578371e+00
7.160000000000000000e+02 5.323413241028829290e+00
7.170000000000000000e+02 4.849420079029226116e+00
7.180000000000000000e+02 3.906935541796300537e+00
7.190000000000000000e+02 3.729816544492845942e+00
7.200000000000000000e+02 3.879866258867448625e+00
7.210000000000000000e+02 3.333232049159905230e+00
7.220000000000000000e+02 3.441493764986524262e+00
7.230000000000000000e+02 2.397347688861304782e+00
7.240000000000000000e+02 1.625042152458007871e+00
7.250000000000000000e+02 1.843784772501058100e+00
7.260000000000000000e+02 2.164588611698815335e+00
7.270000000000000000e+02 2.184651091059946815e+00
7.280000000000000000e+02 2.174158525508086193e+00
7.290000000000000000e+02 2.274946043559427977e+00
7.300000000000000000e+02 1.641843091889666040e+00
7.310000000000000000e+02 8.057370537121540943e-01
7.320000000000000000e+02 5.615961339970951816e-01
7.330000000000000000e+02 6.142513167392669171e-01
7.340000000000000000e+02 1.066827871422654228e+00
7.350000000000000000e+02 9.951803737813651463e-01
7.360000000000000000e+02 5.105124395353489719e-01
7.370000000000000000e+02 1.946577086271178980e-01
7.380000000000000000e+02 3.576478069820732131e-02
7.390000000000000000e+02 2.977881296411581391e-01
7.400000000000000000e+02 4.145205366106509692e-01
7.410000000000000000e+02 6.337776044389177299e-01
7.420000000000000000e+02 1.782690546297718837e-01
7.430000000000000000e+02 2.731298581207125542e-01
7.440000000000000000e+02 4.533129253267095815e-01
7.450000000000000000e+02 1.859428156419692599e-02
7.460000000000000000e+02 2.358487485998765898e-01
7.470000000000000000e+02 6.402343883011826220e-01
7.480000000000000000e+02 3.623568062642605891e-01
7.490000000000000000e+02 1.962095812072176260e-01
7.500000000000000000e+02 1.314094005393053322e-01
7.510000000000000000e+02 5.210175443991521549e-03
7.520000000000000000e+02 7.960722309894618931e-02
7.530000000000000000e+02 3.312912619788485613e-01
7.540000000000000000e+02 3.990735107839011309e-01
7.550000000000000000e+02 8.550325099066818924e-02
7.560000000000000000e+02 5.917613311387290298e-02
7.570000000000000000e+02 4.449087084777980650e-02
7.580000000000000000e+02 2.308466650785972185e-01
7.590000000000000000e+02 7.596591196847179983e-01
7.600000000000000000e+02 6.963078343011180893e-01
7.610000000000000000e+02 7.929409819539507964e-01
7.620000000000000000e+02 8.808182495332915751e-01
7.630000000000000000e+02 7.509666756532525911e-01
7.640000000000000000e+02 3.472592594897232487e-01
7.650000000000000000e+02 2.507440945862021708e-01
7.660000000000000000e+02 1.222750659614172175e+00
7.670000000000000000e+02 5.677882159303015985e-01
7.680000000000000000e+02 1.009045022401994229e+00
7.690000000000000000e+02 7.049970145197881344e-01
7.700000000000000000e+02 1.833587398879885089e-01
7.710000000000000000e+02 3.285814328977414989e-01
7.720000000000000000e+02 7.554730607757790262e-01
7.730000000000000000e+02 9.811648494088387462e-01
7.740000000000000000e+02 1.227119705040448316e+00
7.750000000000000000e+02 9.258366733042978636e-01
7.760000000000000000e+02 1.417657441194759338e+00
7.770000000000000000e+02 1.935014378344741326e+00
7.780000000000000000e+02 1.556337996058902329e+00
7.790000000000000000e+02 9.873103559427525155e-01
7.800000000000000000e+02 1.625877893819991815e+00
7.810000000000000000e+02 1.331512619166144384e+00
7.820000000000000000e+02 9.865614768720182282e-01
7.830000000000000000e+02 1.583798269182910001e+00
7.840000000000000000e+02 2.413658207218421836e+00
7.850000000000000000e+02 2.232215626218631233e+00
7.860000000000000000e+02 1.216742718730562167e+00
7.870000000000000000e+02 1.214914537025505892e+00
7.880000000000000000e+02 1.764940822650897356e+00
7.890000000000000000e+02 1.942456463181912785e+00
7.900000000000000000e+02 1.896133507571044152e+00
7.910000000000000000e+02 1.694921584111184210e+00
7.920000000000000000e+02 1.414024859987552674e+00
7.930000000000000000e+02 1.486266174823724029e+00
7.940000000000000000e+02 1.432992325243724219e+00
7.950000000000000000e+02 8.893319514623512223e-01
7.960000000000000000e+02 2.997797080049878771e-01
7.970000000000000000e+02 4.016148649657624858e-01
7.980000000000000000e+02 8.993056100394184460e-01
7.990000000000000000e+02 1.086441235172125985e+00
8.000000000000000000e+02 1.064557354905624642e+00
8.010000000000000000e+02 7.729805581829601868e-01
8.020000000000000000e+02 6.023602774782264024e-01
8.030000000000000000e+02 7.193976432275410726e-01
8.040000000000000000e+02 5.041397174860174912e-01
8.050000000000000000e+02 2.191946835338046962e-01
8.060000000000000000e+02 2.874104822047421903e-01
8.070000000000000000e+02 1.763791776183446791e-01
8.080000000000000000e+02 5.097328230657527381e-01
8.090000000000000000e+02 6.436695444928440812e-01
8.100000000000000000e+02 6.138774362165526632e-01
8.110000000000000000e+02 4.461621978842513214e-01
8.120000000000000000e+02 3.694534136071386810e-01
8.130000000000000000e+02 8.593931271520578452e-01
8.140000000000000000e+02 1.582732187512956301e+00
8.150000000000000000e+02 8.820843696328238837e-01
8.160000000000000000e+02 2.736778523127816332e-01
8.170000000000000000e+02 3.489738446380293846e-01
8.180000000000000000e+02 9.193239605890555222e-01
8.190000000000000000e+02 1.027762265450058887e+00
8.200000000000000000e+02 5.424638481642611865e-01
8.210000000000000000e+02 9.286550730139163656e-01
8.220000000000000000e+02 2.079853056823042778e-01
8.230000000000000000e+02 9.083195212341728386e-02
8.240000000000000000e+02 9.257081001866696024e-01
8.250000000000000000e+02 1.556788017420157599e+00
8.260000000000000000e+02 1.111942902094990249e+00
8.270000000000000000e+02 3.511002897739010642e-01
8.280000000000000000e+02 2.642845093322319094e-01
8.290000000000000000e+02 9.184071144990880731e-01
8.300000000000000000e+02 1.384289128811460712e+00
8.310000000000000000e+02 1.362420672749905970e+00
8.320000000000000000e+02 1.020112915162807665e+00
8.330000000000000000e+02 6.171219751088858896e-01
8.340000000000000000e+02 5.529915525824325995e-01
8.350000000000000000e+02 9.451580543455716521e-01
8.360000000000000000e+02 8.421789657747402735e-01
8.370000000000000000e+02 6.939057680979058285e-01
8.380000000000000000e+02 8.103436782825100826e-01
8.390000000000000000e+02 9.546731572287896483e-01
8.400000000000000000e+02 1.037612678904792141e+00
8.410000000000000000e+02 1.053388314042729146e+00
8.420000000000000000e+02 1.037265758556316753e+00
8.430000000000000000e+02 1.443681394523962380e+00
8.440000000000000000e+02 9.000248446380243461e-01
8.450000000000000000e+02 6.703818450528926665e-01
8.460000000000000000e+02 3.480897979672153419e-01
8.470000000000000000e+02 5.247347019290871106e-01
8.480000000000000000e+02 8.832376038987824751e-01
8.490000000000000000e+02 4.714500109935624295e-01
8.500000000000000000e+02 5.459251781788192481e-01
8.510000000000000000e+02 1.292095450642895660e+00
8.520000000000000000e+02 9.007741966397163624e-01
8.530000000000000000e+02 6.674862250570403610e-01
8.540000000000000000e+02 6.243485454168353765e-01
8.550000000000000000e+02 6.882309271935279638e-01
8.560000000000000000e+02 9.031752047293090113e-01
8.570000000000000000e+02 7.531530510161710268e-01
8.580000000000000000e+02 2.080329622484879126e-01
8.590000000000000000e+02 5.512572520224132688e-01
8.600000000000000000e+02 1.442558527276517788e+00
8.610000000000000000e+02 1.446650349097678978e+00
8.620000000000000000e+02 8.000689211781714105e-01
8.630000000000000000e+02 5.461368919311446746e-01
8.640000000000000000e+02 6.536554414021906734e-01
8.650000000000000000e+02 2.262155967641551746e-01
8.660000000000000000e+02 4.222010304915911894e-01
8.670000000000000000e+02 5.463644233561506525e-01
8.680000000000000000e+02 6.805081445758155434e-01
8.690000000000000000e+02 4.592415092304544810e-01
8.700000000000000000e+02 3.571708693217139907e-01
8.710000000000000000e+02 8.512291184401588051e-01
8.720000000000000000e+02 6.314100354698177764e-01
8.730000000000000000e+02 8.973831740302886661e-01
8.740000000000000000e+02 1.318533759228535551e+00
8.750000000000000000e+02 7.548040597386309614e-01
8.760000000000000000e+02 2.358577853142504732e-01
8.770000000000000000e+02 1.035772456242233019e+00
8.780000000000000000e+02 1.845000074051009298e+00
8.790000000000000000e+02 2.796356490354683366e-01
8.800000000000000000e+02 8.951026589983476778e-02
8.810000000000000000e+02 5.500801738228605631e-01
8.820000000000000000e+02 4.675007647790885845e-01
8.830000000000000000e+02 8.403466503525488518e-01
8.840000000000000000e+02 6.983026185438706568e-01
8.850000000000000000e+02 4.520337934038609617e-01
8.860000000000000000e+02 3.845634686810325831e-02
8.870000000000000000e+02 4.619296090022815271e-01
8.880000000000000000e+02 7.231864579962642425e-01
8.890000000000000000e+02 1.939875345799600415e-01
8.900000000000000000e+02 6.396441095809982103e-02
8.910000000000000000e+02 1.871568971167740791e-01
8.920000000000000000e+02 2.417881095208463393e-01
8.930000000000000000e+02 2.033577311246492769e-01
8.940000000000000000e+02 5.080927921593035856e-01
8.950000000000000000e+02 1.209639212594901259e-01
8.960000000000000000e+02 1.914426558805213952e-01
8.970000000000000000e+02 4.875002059738570148e-01
8.980000000000000000e+02 6.911756645924072018e-01
8.990000000000000000e+02 1.056174158361490867e-01
9.000000000000000000e+02 3.292492784438104114e-01
9.010000000000000000e+02 7.848703729516709471e-02
9.020000000000000000e+02 8.937649880896073040e-02
9.030000000000000000e+02 2.862342557351344949e-02
9.040000000000000000e+02 3.391642453847683036e-01
9.050000000000000000e+02 8.694842302426959435e-01
9.060000000000000000e+02 6.123291630029206178e-01
9.070000000000000000e+02 1.253777637417585467e-01
9.080000000000000000e+02 3.570924109105759192e-01
9.090000000000000000e+02 4.557825798424069985e-01
9.100000000000000000e+02 7.128449680564065138e-01
9.110000000000000000e+02 1.717967187305617371e-01
9.120000000000000000e+02 3.403299311489004220e-01
9.130000000000000000e+02 2.926843835303898911e-01
9.140000000000000000e+02 9.323206622941673793e-02
9.150000000000000000e+02 2.044164638041880977e-01
9.160000000000000000e+02 6.196570168014916558e-01
9.170000000000000000e+02 7.904865065339150565e-01
9.180000000000000000e+02 6.388254167185226651e-01
9.190000000000000000e+02 6.794234221115950101e-01
9.200000000000000000e+02 6.030554779091465978e-01
9.210000000000000000e+02 8.001005532047206215e-01
9.220000000000000000e+02 9.404533111387679556e-01
9.230000000000000000e+02 7.867293752333429646e-01
9.240000000000000000e+02 8.562223453640189774e-01
9.250000000000000000e+02 1.104015922837596309e+00
9.260000000000000000e+02 3.370314573740214037e-01
9.270000000000000000e+02 9.884407568969104663e-01
9.280000000000000000e+02 7.353062885293563111e-01
9.290000000000000000e+02 8.649908510991179966e-01
9.300000000000000000e+02 1.211516764779088096e+00
9.310000000000000000e+02 1.435612410080894685e+00
9.320000000000000000e+02 1.402961175031108398e+00
9.330000000000000000e+02 1.524514054967858634e+00
9.340000000000000000e+02 2.379823110143127529e+00
9.350000000000000000e+02 2.044136126918279839e+00
9.360000000000000000e+02 1.650376927400944771e+00
9.370000000000000000e+02 1.620686691557771342e+00
9.380000000000000000e+02 1.588596881584410037e+00
9.390000000000000000e+02 1.350445451151228937e+00
9.400000000000000000e+02 1.177688808545941601e+00
9.410000000000000000e+02 1.209376512964099204e+00
9.420000000000000000e+02 1.451055176104556033e+00
9.430000000000000000e+02 1.032108535780966063e+00
9.440000000000000000e+02 1.055155163658987094e+00
9.450000000000000000e+02 1.471171052893582631e+00
9.460000000000000000e+02 1.686270703381040681e+00
9.470000000000000000e+02 1.870800870358849011e+00
9.480000000000000000e+02 1.576083644057245881e+00
9.490000000000000000e+02 6.346441541174019374e-01
9.500000000000000000e+02 5.341276795270686328e-01
9.510000000000000000e+02 5.050669738643439599e-01
9.520000000000000000e+02 6.580047280647227659e-01
9.530000000000000000e+02 1.405018358431903591e+00
9.540000000000000000e+02 1.379017373366510091e+00
9.550000000000000000e+02 1.374710932393212515e+00
9.560000000000000000e+02 1.687822568346812435e+00
9.570000000000000000e+02 1.573688130055979517e+00
9.580000000000000000e+02 1.157559953961022403e+00
9.590000000000000000e+02 1.528870211159506498e+00
9.600000000000000000e+02 1.422269986517323836e+00
9.610000000000000000e+02 1.371792944836167649e+00
9.620000000000000000e+02 1.305539259489732595e+00
9.630000000000000000e+02 1.438395270898152889e+00
9.640000000000000000e+02 1.466100227291576408e+00
9.650000000000000000e+02 1.448763631404277108e+00
9.660000000000000000e+02 1.743861228998134560e+00
9.670000000000000000e+02 1.531517746110785394e+00
9.680000000000000000e+02 2.077997106202044364e+00
9.690000000000000000e+02 2.320299898776188918e+00
9.700000000000000000e+02 2.305979967019291088e+00
9.710000000000000000e+02 2.445905866832612574e+00
9.720000000000000000e+02 2.277425941713326463e+00
9.730000000000000000e+02 1.914878972827214865e+00
9.740000000000000000e+02 2.248259595727047255e+00
9.750000000000000000e+02 3.001272719975115244e+00
9.760000000000000000e+02 3.111612522090851929e+00
9.770000000000000000e+02 3.373482509437873311e+00
9.780000000000000000e+02 3.651810531010160954e+00
9.790000000000000000e+02 4.331538488073025661e+00
9.800000000000000000e+02 5.631838273802134864e+00
9.810000000000000000e+02 6.351564051430940161e+00
9.820000000000000000e+02 6.575296280439778762e+00
9.830000000000000000e+02 7.784107615225059007e+00
9.840000000000000000e+02 7.854386022401992129e+00
9.850000000000000000e+02 8.423809060360911261e+00
9.860000000000000000e+02 1.007125902509853965e+01
9.870000000000000000e+02 1.089306417340800515e+01
9.880000000000000000e+02 1.196011469197260269e+01
9.890000000000000000e+02 1.289643327317983967e+01
9.900000000000000000e+02 1.372029836963285021e+01
9.910000000000000000e+02 1.539791806679109243e+01
9.920000000000000000e+02 1.724894904584111188e+01
9.930000000000000000e+02 1.859542148724329991e+01
9.940000000000000000e+02 1.961471731646618366e+01
9.950000000000000000e+02 2.015349575606721544e+01
9.960000000000000000e+02 2.225428278987762809e+01
9.970000000000000000e+02 2.352025350062214670e+01
9.980000000000000000e+02 2.381807769135033936e+01
9.990000000000000000e+02 2.418624532876996369e+01
1.000000000000000000e+03 2.461321476674268638e+01
1.001000000000000000e+03 2.534765178423236520e+01
1.002000000000000000e+03 2.483526659751038679e+01
1.003000000000000000e+03 2.426735718426501620e+01
1.004000000000000000e+03 2.530592962655602918e+01
1.005000000000000000e+03 2.334606927385900121e+01
1.006000000000000000e+03 2.173563657676347560e+01
1.007000000000000000e+03 2.119376066390044144e+01
1.008000000000000000e+03 1.952608896265549276e+01
1.009000000000000000e+03 1.728343531120332344e+01
1.010000000000000000e+03 1.570459717842314618e+01
1.011000000000000000e+03 1.309354772256727095e+01
1.012000000000000000e+03 1.206260908713694313e+01
1.013000000000000000e+03 1.159232230290454702e+01
1.014000000000000000e+03 1.071753665975105996e+01
1.015000000000000000e+03 9.521276336099532500e+00
1.016000000000000000e+03 8.310617348547705063e+00
1.017000000000000000e+03 7.003429008298769354e+00
1.018000000000000000e+03 6.155158771784233984e+00
1.019000000000000000e+03 6.782147970954350846e+00
1.020000000000000000e+03 5.284517616182498045e+00
1.021000000000000000e+03 4.777147794605809850e+00
1.022000000000000000e+03 4.556903278008266334e+00
1.023000000000000000e+03 3.521888514522818259e+00
1.024000000000000000e+03 2.995343647302904255e+00
1.025000000000000000e+03 3.103504323651456787e+00
1.026000000000000000e+03 2.755839286307070868e+00
1.027000000000000000e+03 2.175682979253108940e+00
1.028000000000000000e+03 2.040836165975100869e+00
1.029000000000000000e+03 1.216535402489645534e+00
1.030000000000000000e+03 1.812060975103748639e+00
1.031000000000000000e+03 1.852608618257238993e+00
1.032000000000000000e+03 1.516475391304373588e+00
1.033000000000000000e+03 1.385677261410788397e+00
1.034000000000000000e+03 1.735217253112067315e+00
1.035000000000000000e+03 1.579279609958672559e+00
1.036000000000000000e+03 4.172760746887969052e-01
1.037000000000000000e+03 5.651068215767794944e-01
1.038000000000000000e+03 9.645712219916986463e-01
1.039000000000000000e+03 6.765421078838358415e-01
1.040000000000000000e+03 6.479097101449270424e-01
1.041000000000000000e+03 1.083179929460604152e+00
1.042000000000000000e+03 3.898184836018099841e-01
1.043000000000000000e+03 3.684945103734407756e-01
1.044000000000000000e+03 2.258140373443992266e-01
1.045000000000000000e+03 6.804764668049764209e-01
1.046000000000000000e+03 4.386830601659826301e-01
1.047000000000000000e+03 8.293734917012447472e-01
1.048000000000000000e+03 6.374997391304397798e-01
1.049000000000000000e+03 2.261169336099694560e-01
1.050000000000000000e+03 4.483236846472976045e-01
1.051000000000000000e+03 1.358693477842619901e-01
1.052000000000000000e+03 4.271953354037136275e-01
1.053000000000000000e+03 1.259347538796775912e-01
1.054000000000000000e+03 2.689787074688907431e-01
1.055000000000000000e+03 5.781495809128380792e-01
1.056000000000000000e+03 1.904443443983329376e-01
1.057000000000000000e+03 7.026839502074672117e-01
1.058000000000000000e+03 2.995555560165656939e-01
1.059000000000000000e+03 1.536711453983163056e-01
1.060000000000000000e+03 5.213912325559628691e-01
1.061000000000000000e+03 5.987274596273129967e-01
1.062000000000000000e+03 3.502581680498056960e-01
1.063000000000000000e+03 4.677963464730288679e-01
1.064000000000000000e+03 5.966196348547664341e-01
1.065000000000000000e+03 8.175524937759155453e-01
1.066000000000000000e+03 4.666497261411149400e-01
1.067000000000000000e+03 1.959282323651481972e-01
1.068000000000000000e+03 3.120912738589232127e-01
1.069000000000000000e+03 1.912628571428609259e-01
1.070000000000000000e+03 9.591444232364420008e-01
1.071000000000000000e+03 1.021485037344397551e+00
1.072000000000000000e+03 6.082354315352710428e-01
1.073000000000000000e+03 8.273399792530905517e-01
1.074000000000000000e+03 1.026419672199168520e+00
1.075000000000000000e+03 1.024761331950224896e+00
1.076000000000000000e+03 1.424950282157672055e+00
1.077000000000000000e+03 1.287478308488620771e+00
1.078000000000000000e+03 1.238869427385894895e+00
1.079000000000000000e+03 1.547793070539449589e+00
1.080000000000000000e+03 1.880304244813257641e+00
1.081000000000000000e+03 1.928574256728780689e+00
1.082000000000000000e+03 1.784283410788365387e+00
1.083000000000000000e+03 2.233866937759305227e+00
1.084000000000000000e+03 3.226339224066370193e+00
1.085000000000000000e+03 3.187182398340249634e+00
1.086000000000000000e+03 3.545727373444017783e+00
1.087000000000000000e+03 3.617590533195012448e+00
1.088000000000000000e+03 4.201686153526960510e+00
1.089000000000000000e+03 4.716836968879674075e+00
1.090000000000000000e+03 4.613923348547748660e+00
1.091000000000000000e+03 4.391797385892113326e+00
1.092000000000000000e+03 4.930654053941938564e+00
1.093000000000000000e+03 5.674549087136915304e+00
1.094000000000000000e+03 5.519166627329193275e+00
1.095000000000000000e+03 5.770715499999999665e+00
1.096000000000000000e+03 6.415834151452306955e+00
1.097000000000000000e+03 6.393499987551856556e+00
1.098000000000000000e+03 7.918482066252542140e+00
1.099000000000000000e+03 7.217054406638938602e+00
1.100000000000000000e+03 7.413774078838281767e+00
1.101000000000000000e+03 8.558795385892043583e+00
1.102000000000000000e+03 9.521065869565211059e+00
1.103000000000000000e+03 9.763483869294546480e+00
1.104000000000000000e+03 9.700324919087002229e+00
1.105000000000000000e+03 1.069616628630708632e+01
1.106000000000000000e+03 9.619591263485464339e+00
1.107000000000000000e+03 9.827112526970974926e+00
1.108000000000000000e+03 1.082557070539415101e+01
1.109000000000000000e+03 1.098091979253111816e+01
1.110000000000000000e+03 1.105387348547719384e+01
1.111000000000000000e+03 1.123412315352696034e+01
1.112000000000000000e+03 1.100027398340249896e+01
1.113000000000000000e+03 1.049262323651450224e+01
1.114000000000000000e+03 1.037064026970955410e+01
1.115000000000000000e+03 1.068823593360994728e+01
1.116000000000000000e+03 1.096356941908714511e+01
1.117000000000000000e+03 1.110311717842318657e+01
1.118000000000000000e+03 1.030984713692947885e+01
1.119000000000000000e+03 1.042735778008298730e+01
1.120000000000000000e+03 9.463077174273784919e+00
1.121000000000000000e+03 9.368334026970970285e+00
1.122000000000000000e+03 9.229368537344448953e+00
1.123000000000000000e+03 9.091369801242255022e+00
1.124000000000000000e+03 9.016434340248837387e+00
1.125000000000000000e+03 7.870104688796720538e+00
1.126000000000000000e+03 7.693817556016600001e+00
1.127000000000000000e+03 6.922466068322910893e+00
1.128000000000000000e+03 5.706476908713778329e+00
1.129000000000000000e+03 6.262207473029031135e+00
1.130000000000000000e+03 6.444489226141064897e+00
1.131000000000000000e+03 5.563055881987523321e+00
1.132000000000000000e+03 4.823968435684665046e+00
1.133000000000000000e+03 4.781978834024897651e+00
1.134000000000000000e+03 4.487062344398272451e+00
1.135000000000000000e+03 3.757353286307048901e+00
1.136000000000000000e+03 3.676472767634853867e+00
1.137000000000000000e+03 3.755223676348550921e+00
1.138000000000000000e+03 3.737598734439822490e+00
1.139000000000000000e+03 3.439423502074720584e+00
1.140000000000000000e+03 2.254193954356821017e+00
1.141000000000000000e+03 1.667638593360973420e+00
1.142000000000000000e+03 2.507682817427285382e+00
1.143000000000000000e+03 2.440914937888223335e+00
1.144000000000000000e+03 1.377358018672147022e+00
1.145000000000000000e+03 8.935014377593601953e-01
1.146000000000000000e+03 1.194885078838162862e+00
1.147000000000000000e+03 1.227003941908708207e+00
1.148000000000000000e+03 9.370551493776170249e-01
1.149000000000000000e+03 1.155886074688815990e+00
1.150000000000000000e+03 3.260521659751094425e-01
1.151000000000000000e+03 5.001511369294817655e-01
1.152000000000000000e+03 3.809924389234073394e-01
1.153000000000000000e+03 5.191949398340138799e-01
1.154000000000000000e+03 2.409009232365038333e-01
1.155000000000000000e+03 6.434770000000075152e-01
1.156000000000000000e+03 1.083173485476971731e-01
1.157000000000000000e+03 3.859889502074673184e-01
1.158000000000000000e+03 7.763164315356872736e-02
1.159000000000000000e+03 4.317731037344825218e-01
1.160000000000000000e+03 4.360916776955636731e-02
1.161000000000000000e+03 3.838035165975035579e-01
1.162000000000000000e+03 3.481853091286283841e-01
1.163000000000000000e+03 1.511840283340049607e-01
1.164000000000000000e+03 2.129624019336080476e-01
1.165000000000000000e+03 3.866131410788293810e-01
1.166000000000000000e+03 3.337133609958484737e-01
1.167000000000000000e+03 2.215446058091349035e-01
1.168000000000000000e+03 8.085413876348312989e-02
1.169000000000000000e+03 2.946007219916614295e-01
1.170000000000000000e+03 9.754247406638429929e-01
1.171000000000000000e+03 1.602575512448113360e+00
1.172000000000000000e+03 2.623833043478450699e-01
1.173000000000000000e+03 1.659832676348513614e+00
1.174000000000000000e+03 1.232302506224075112e+00
1.175000000000000000e+03 1.278091024896278460e+00
1.176000000000000000e+03 6.053609502074757120e-01
1.177000000000000000e+03 7.580289211617844414e-01
1.178000000000000000e+03 8.721727614107698257e-01
1.179000000000000000e+03 5.243411514522940964e-01
1.180000000000000000e+03 9.658198817426876248e-01
1.181000000000000000e+03 1.284077488612836326e+00
1.182000000000000000e+03 9.991282821576776829e-01
1.183000000000000000e+03 1.489894921161928787e+00
1.184000000000000000e+03 6.511312323651209377e-01
1.185000000000000000e+03 1.540647122406668679e+00
1.186000000000000000e+03 1.886400095435668778e+00
1.187000000000000000e+03 1.193808721991748145e+00
1.188000000000000000e+03 1.194418904564312989e+00
1.189000000000000000e+03 1.626632857142874089e+00
1.190000000000000000e+03 1.127125680498037408e+00
1.191000000000000000e+03 9.898347717842062021e-01
1.192000000000000000e+03 1.980889767634880450e+00
1.193000000000000000e+03 1.995778580912799693e+00
1.194000000000000000e+03 1.356795580912861565e+00
1.195000000000000000e+03 2.446746883817437546e+00
1.196000000000000000e+03 2.509093441908704758e+00
1.197000000000000000e+03 2.429034658385157641e+00
1.198000000000000000e+03 1.637634539419085655e+00
1.199000000000000000e+03 2.470000950207525303e+00
1.200000000000000000e+03 3.260431755186734115e+00
1.201000000000000000e+03 3.108033051759849119e+00
1.202000000000000000e+03 3.923286782157728414e+00
1.203000000000000000e+03 4.018122628630528936e+00
1.204000000000000000e+03 3.155359024896207121e+00
1.205000000000000000e+03 3.884416199170121153e+00
1.206000000000000000e+03 3.620409390041468445e+00
1.207000000000000000e+03 3.250224589211634374e+00
1.208000000000000000e+03 3.228362991701239526e+00
1.209000000000000000e+03 3.693576954356854625e+00
1.210000000000000000e+03 3.857514759336056809e+00
1.211000000000000000e+03 3.170510114107908173e+00
1.212000000000000000e+03 3.113132585062239777e+00
1.213000000000000000e+03 3.033682632780070776e+00
1.214000000000000000e+03 3.116459269709520807e+00
1.215000000000000000e+03 2.714289116182609707e+00
1.216000000000000000e+03 2.316320792531140427e+00
1.217000000000000000e+03 2.910513107883852868e+00
1.218000000000000000e+03 3.206506915113852330e+00
1.219000000000000000e+03 3.106067545643147909e+00
1.220000000000000000e+03 2.228659663900391941e+00
1.221000000000000000e+03 2.755720844398307445e+00
1.222000000000000000e+03 2.353672502074708017e+00
1.223000000000000000e+03 2.474043941908727007e+00
1.224000000000000000e+03 2.763676668049795726e+00
1.225000000000000000e+03 2.674970692946048612e+00
1.226000000000000000e+03 3.579311157349904349e+00
1.227000000000000000e+03 3.967811999999940831e+00
1.228000000000000000e+03 3.287438203319557051e+00
1.229000000000000000e+03 3.120502026970945586e+00
1.230000000000000000e+03 2.757562795030964686e+00
1.231000000000000000e+03 1.629167817427383813e+00
1.232000000000000000e+03 2.043439717842324033e+00
1.233000000000000000e+03 1.485901647302898532e+00
1.234000000000000000e+03 1.575078053941925793e+00
1.235000000000000000e+03 1.914557740663888952e+00
1.236000000000000000e+03 9.018988360995926490e-01
1.237000000000000000e+03 1.204110690871400102e+00
1.238000000000000000e+03 1.609428093360984136e+00
1.239000000000000000e+03 8.440613609958795838e-01
1.240000000000000000e+03 6.074523651452456985e-01
1.241000000000000000e+03 9.548523651452316408e-01
1.242000000000000000e+03 8.277747344398578289e-01
1.243000000000000000e+03 7.767702282157717963e-01
1.244000000000000000e+03 8.785353568464374652e-01
1.245000000000000000e+03 5.685044585062207778e-01
1.246000000000000000e+03 1.030913354771780144e+00
1.247000000000000000e+03 7.914577888198713884e-01
1.248000000000000000e+03 1.711911742738647435e+00
1.249000000000000000e+03 4.433049543569350659e-01
1.250000000000000000e+03 1.587711000000000094e+00
1.251000000000000000e+03 1.509762776397464812e+00
1.252000000000000000e+03 5.785486182573035263e-01
1.253000000000000000e+03 5.836147074688666780e-01
1.254000000000000000e+03 1.057946311203328937e+00
1.255000000000000000e+03 8.472365445134408812e-01
1.256000000000000000e+03 3.869484896265544260e-01
1.257000000000000000e+03 3.664339668049772514e-01
1.258000000000000000e+03 7.043732365146089247e-01
1.259000000000000000e+03 1.336087666666707197e+00
1.260000000000000000e+03 1.917434585062294805e-01
1.261000000000000000e+03 6.934186659751229165e-01
1.262000000000000000e+03 3.951107116182789869e-01
1.263000000000000000e+03 1.883478251037256745e+00
1.264000000000000000e+03 9.264284979252861429e-01
1.265000000000000000e+03 6.635406182572610723e-01
1.266000000000000000e+03 4.642769502074928223e-01
1.267000000000000000e+03 3.497545145228189156e-01
1.268000000000000000e+03 7.172720580913224397e-01
1.269000000000000000e+03 9.821250082987631469e-01
1.270000000000000000e+03 5.730381286307348887e-01
1.271000000000000000e+03 1.087220513091274043e-01
1.272000000000000000e+03 7.644789045642554903e-01
1.273000000000000000e+03 1.557281547717876302e+00
1.274000000000000000e+03 2.033787261410793246e-01
1.275000000000000000e+03 1.169115643153506717e-01
1.276000000000000000e+03 1.070891333333279682e+00
1.277000000000000000e+03 7.327430207469016743e-01
1.278000000000000000e+03 2.585185809128819900e-01
1.279000000000000000e+03 1.113635207468921084e+00
1.280000000000000000e+03 8.347989275362728279e-01
1.281000000000000000e+03 6.447554315352731491e-01
1.282000000000000000e+03 8.722242406639090229e-01
1.283000000000000000e+03 4.212816639005039221e-01
1.284000000000000000e+03 1.759779870746734920e-01
1.285000000000000000e+03 1.959731938298446829e-01
1.286000000000000000e+03 3.401440470580597286e-01
1.287000000000000000e+03 1.217273753112023016e+00
1.288000000000000000e+03 7.988182095435663044e-01
1.289000000000000000e+03 6.274852614107578885e-01
1.290000000000000000e+03 1.384826565688668243e-02
1.291000000000000000e+03 2.309193319502017838e-01
1.292000000000000000e+03 5.659431014492974921e-01
1.293000000000000000e+03 1.097770493775905631e+00
1.294000000000000000e+03 1.156938456431543250e+00
1.295000000000000000e+03 8.889062178423163818e-01
1.296000000000000000e+03 4.460337966804592824e-01
1.297000000000000000e+03 6.493065150084539883e-02
1.298000000000000000e+03 0.000000000000000000e+00
1.299000000000000000e+03 0.000000000000000000e+00
1.300000000000000000e+03 0.000000000000000000e+00
1.301000000000000000e+03 0.000000000000000000e+00
1.302000000000000000e+03 0.000000000000000000e+00
1.303000000000000000e+03 0.000000000000000000e+00
1.304000000000000000e+03 0.000000000000000000e+00
1.305000000000000000e+03 0.000000000000000000e+00
1.306000000000000000e+03 0.000000000000000000e+00
1.307000000000000000e+03 0.000000000000000000e+00
1.308000000000000000e+03 0.000000000000000000e+00
1.309000000000000000e+03 0.000000000000000000e+00
1.310000000000000000e+03 0.000000000000000000e+00
1.311000000000000000e+03 0.000000000000000000e+00
1.312000000000000000e+03 0.000000000000000000e+00
1.313000000000000000e+03 0.000000000000000000e+00
1.314000000000000000e+03 0.000000000000000000e+00
1.315000000000000000e+03 0.000000000000000000e+00
1.316000000000000000e+03 0.000000000000000000e+00
1.317000000000000000e+03 0.000000000000000000e+00
1.318000000000000000e+03 0.000000000000000000e+00
1.319000000000000000e+03 0.000000000000000000e+00
1.320000000000000000e+03 0.000000000000000000e+00
1.321000000000000000e+03 0.000000000000000000e+00
1.322000000000000000e+03 0.000000000000000000e+00
1.323000000000000000e+03 0.000000000000000000e+00
1.324000000000000000e+03 0.000000000000000000e+00
1.325000000000000000e+03 0.000000000000000000e+00
1.326000000000000000e+03 0.000000000000000000e+00
1.327000000000000000e+03 0.000000000000000000e+00
1.328000000000000000e+03 0.000000000000000000e+00
1.329000000000000000e+03 0.000000000000000000e+00
1.330000000000000000e+03 0.000000000000000000e+00
1.331000000000000000e+03 0.000000000000000000e+00
1.332000000000000000e+03 0.000000000000000000e+00
1.333000000000000000e+03 0.000000000000000000e+00
1.334000000000000000e+03 0.000000000000000000e+00
1.335000000000000000e+03 0.000000000000000000e+00
1.336000000000000000e+03 0.000000000000000000e+00
1.337000000000000000e+03 0.000000000000000000e+00
1.338000000000000000e+03 0.000000000000000000e+00
1.339000000000000000e+03 0.000000000000000000e+00
1.340000000000000000e+03 0.000000000000000000e+00
1.341000000000000000e+03 0.000000000000000000e+00
1.342000000000000000e+03 0.000000000000000000e+00
1.343000000000000000e+03 0.000000000000000000e+00
1.344000000000000000e+03 0.000000000000000000e+00
1.345000000000000000e+03 0.000000000000000000e+00
1.346000000000000000e+03 0.000000000000000000e+00
1.347000000000000000e+03 0.000000000000000000e+00
1.348000000000000000e+03 0.000000000000000000e+00
1.349000000000000000e+03 0.000000000000000000e+00
1.350000000000000000e+03 0.000000000000000000e+00
1.351000000000000000e+03 0.000000000000000000e+00
1.352000000000000000e+03 0.000000000000000000e+00
1.353000000000000000e+03 0.000000000000000000e+00
1.354000000000000000e+03 0.000000000000000000e+00
1.355000000000000000e+03 0.000000000000000000e+00
1.356000000000000000e+03 0.000000000000000000e+00
1.357000000000000000e+03 0.000000000000000000e+00
1.358000000000000000e+03 0.000000000000000000e+00
1.359000000000000000e+03 0.000000000000000000e+00
1.360000000000000000e+03 0.000000000000000000e+00
1.361000000000000000e+03 0.000000000000000000e+00
1.362000000000000000e+03 0.000000000000000000e+00
1.363000000000000000e+03 0.000000000000000000e+00
1.364000000000000000e+03 0.000000000000000000e+00
1.365000000000000000e+03 0.000000000000000000e+00
1.366000000000000000e+03 0.000000000000000000e+00
1.367000000000000000e+03 0.000000000000000000e+00
1.368000000000000000e+03 0.000000000000000000e+00
1.369000000000000000e+03 0.000000000000000000e+00
1.370000000000000000e+03 0.000000000000000000e+00
1.371000000000000000e+03 0.000000000000000000e+00
1.372000000000000000e+03 0.000000000000000000e+00
1.373000000000000000e+03 0.000000000000000000e+00
1.374000000000000000e+03 0.000000000000000000e+00
1.375000000000000000e+03 0.000000000000000000e+00
1.376000000000000000e+03 0.000000000000000000e+00
1.377000000000000000e+03 0.000000000000000000e+00
1.378000000000000000e+03 0.000000000000000000e+00
1.379000000000000000e+03 0.000000000000000000e+00
1.380000000000000000e+03 0.000000000000000000e+00
1.381000000000000000e+03 0.000000000000000000e+00
1.382000000000000000e+03 0.000000000000000000e+00
1.383000000000000000e+03 0.000000000000000000e+00
1.384000000000000000e+03 0.000000000000000000e+00
1.385000000000000000e+03 0.000000000000000000e+00
1.386000000000000000e+03 0.000000000000000000e+00
1.387000000000000000e+03 0.000000000000000000e+00
1.388000000000000000e+03 0.000000000000000000e+00
1.389000000000000000e+03 0.000000000000000000e+00
1.390000000000000000e+03 0.000000000000000000e+00
1.391000000000000000e+03 0.000000000000000000e+00
1.392000000000000000e+03 0.000000000000000000e+00
1.393000000000000000e+03 0.000000000000000000e+00
1.394000000000000000e+03 0.000000000000000000e+00
1.395000000000000000e+03 0.000000000000000000e+00
1.396000000000000000e+03 0.000000000000000000e+00
1.397000000000000000e+03 0.000000000000000000e+00
1.398000000000000000e+03 0.000000000000000000e+00
1.399000000000000000e+03 0.000000000000000000e+00
1.400000000000000000e+03 0.000000000000000000e+00
1.401000000000000000e+03 0.000000000000000000e+00
1.402000000000000000e+03 0.000000000000000000e+00
1.403000000000000000e+03 0.000000000000000000e+00
1.404000000000000000e+03 0.000000000000000000e+00
1.405000000000000000e+03 0.000000000000000000e+00
1.406000000000000000e+03 0.000000000000000000e+00
1.407000000000000000e+03 0.000000000000000000e+00
1.408000000000000000e+03 0.000000000000000000e+00
1.409000000000000000e+03 0.000000000000000000e+00
1.410000000000000000e+03 0.000000000000000000e+00
1.411000000000000000e+03 0.000000000000000000e+00
1.412000000000000000e+03 0.000000000000000000e+00
1.413000000000000000e+03 0.000000000000000000e+00
1.414000000000000000e+03 0.000000000000000000e+00
1.415000000000000000e+03 0.000000000000000000e+00
1.416000000000000000e+03 0.000000000000000000e+00
1.417000000000000000e+03 0.000000000000000000e+00
1.418000000000000000e+03 0.000000000000000000e+00
1.419000000000000000e+03 0.000000000000000000e+00
1.420000000000000000e+03 0.000000000000000000e+00
1.421000000000000000e+03 0.000000000000000000e+00
1.422000000000000000e+03 0.000000000000000000e+00
1.423000000000000000e+03 0.000000000000000000e+00
1.424000000000000000e+03 0.000000000000000000e+00
1.425000000000000000e+03 0.000000000000000000e+00
1.426000000000000000e+03 0.000000000000000000e+00
1.427000000000000000e+03 0.000000000000000000e+00
1.428000000000000000e+03 0.000000000000000000e+00
1.429000000000000000e+03 0.000000000000000000e+00
1.430000000000000000e+03 0.000000000000000000e+00
1.431000000000000000e+03 0.000000000000000000e+00
1.432000000000000000e+03 0.000000000000000000e+00
1.433000000000000000e+03 0.000000000000000000e+00
1.434000000000000000e+03 0.000000000000000000e+00
1.435000000000000000e+03 0.000000000000000000e+00
1.436000000000000000e+03 0.000000000000000000e+00
1.437000000000000000e+03 0.000000000000000000e+00
1.438000000000000000e+03 0.000000000000000000e+00
1.439000000000000000e+03 0.000000000000000000e+00
1.440000000000000000e+03 0.000000000000000000e+00
1.441000000000000000e+03 0.000000000000000000e+00
1.442000000000000000e+03 0.000000000000000000e+00
1.443000000000000000e+03 0.000000000000000000e+00
1.444000000000000000e+03 0.000000000000000000e+00
1.445000000000000000e+03 0.000000000000000000e+00
1.446000000000000000e+03 0.000000000000000000e+00
1.447000000000000000e+03 0.000000000000000000e+00
1.448000000000000000e+03 0.000000000000000000e+00
1.449000000000000000e+03 0.000000000000000000e+00
1.450000000000000000e+03 0.000000000000000000e+00
1.451000000000000000e+03 0.000000000000000000e+00
1.452000000000000000e+03 0.000000000000000000e+00
1.453000000000000000e+03 0.000000000000000000e+00
1.454000000000000000e+03 0.000000000000000000e+00
1.455000000000000000e+03 0.000000000000000000e+00
1.456000000000000000e+03 0.000000000000000000e+00
1.457000000000000000e+03 0.000000000000000000e+00
1.458000000000000000e+03 0.000000000000000000e+00
1.459000000000000000e+03 0.000000000000000000e+00
1.460000000000000000e+03 0.000000000000000000e+00
1.461000000000000000e+03 0.000000000000000000e+00
1.462000000000000000e+03 0.000000000000000000e+00
1.463000000000000000e+03 0.000000000000000000e+00
1.464000000000000000e+03 0.000000000000000000e+00
1.465000000000000000e+03 0.000000000000000000e+00
1.466000000000000000e+03 0.000000000000000000e+00
1.467000000000000000e+03 0.000000000000000000e+00
1.468000000000000000e+03 0.000000000000000000e+00
1.469000000000000000e+03 0.000000000000000000e+00
1.470000000000000000e+03 0.000000000000000000e+00
1.471000000000000000e+03 0.000000000000000000e+00
1.472000000000000000e+03 0.000000000000000000e+00
1.473000000000000000e+03 0.000000000000000000e+00
1.474000000000000000e+03 0.000000000000000000e+00
1.475000000000000000e+03 0.000000000000000000e+00
1.476000000000000000e+03 0.000000000000000000e+00
1.477000000000000000e+03 0.000000000000000000e+00
1.478000000000000000e+03 0.000000000000000000e+00
1.479000000000000000e+03 0.000000000000000000e+00
1.480000000000000000e+03 0.000000000000000000e+00
1.481000000000000000e+03 0.000000000000000000e+00
1.482000000000000000e+03 0.000000000000000000e+00
1.483000000000000000e+03 0.000000000000000000e+00
1.484000000000000000e+03 0.000000000000000000e+00
1.485000000000000000e+03 0.000000000000000000e+00
1.486000000000000000e+03 0.000000000000000000e+00
1.487000000000000000e+03 0.000000000000000000e+00
1.488000000000000000e+03 0.000000000000000000e+00
1.489000000000000000e+03 0.000000000000000000e+00
1.490000000000000000e+03 0.000000000000000000e+00
1.491000000000000000e+03 0.000000000000000000e+00
1.492000000000000000e+03 0.000000000000000000e+00
1.493000000000000000e+03 0.000000000000000000e+00
1.494000000000000000e+03 0.000000000000000000e+00
1.495000000000000000e+03 0.000000000000000000e+00
1.496000000000000000e+03 0.000000000000000000e+00
1.497000000000000000e+03 0.000000000000000000e+00
1.498000000000000000e+03 0.000000000000000000e+00
1.499000000000000000e+03 0.000000000000000000e+00
1.500000000000000000e+03 0.000000000000000000e+00
