1.010000000000000000e+02 0.000000000000000000e+00
1.020000000000000000e+02 0.000000000000000000e+00
1.030000000000000000e+02 0.000000000000000000e+00
1.040000000000000000e+02 0.000000000000000000e+00
1.050000000000000000e+02 0.000000000000000000e+00
1.060000000000000000e+02 0.000000000000000000e+00
1.070000000000000000e+02 0.000000000000000000e+00
1.080000000000000000e+02 0.000000000000000000e+00
1.090000000000000000e+02 0.000000000000000000e+00
1.100000000000000000e+02 0.000000000000000000e+00
1.110000000000000000e+02 0.000000000000000000e+00
1.120000000000000000e+02 0.000000000000000000e+00
1.130000000000000000e+02 0.000000000000000000e+00
1.140000000000000000e+02 0.000000000000000000e+00
1.150000000000000000e+02 0.000000000000000000e+00
1.160000000000000000e+02 0.000000000000000000e+00
1.170000000000000000e+02 0.000000000000000000e+00
1.180000000000000000e+02 0.000000000000000000e+00
1.190000000000000000e+02 0.000000000000000000e+00
1.200000000000000000e+02 0.000000000000000000e+00
1.210000000000000000e+02 0.000000000000000000e+00
1.220000000000000000e+02 0.000000000000000000e+00
1.230000000000000000e+02 0.000000000000000000e+00
1.240000000000000000e+02 0.000000000000000000e+00
1.250000000000000000e+02 0.000000000000000000e+00
1.260000000000000000e+02 0.000000000000000000e+00
1.270000000000000000e+02 0.000000000000000000e+00
1.280000000000000000e+02 0.000000000000000000e+00
1.290000000000000000e+02 0.000000000000000000e+00
1.300000000000000000e+02 0.000000000000000000e+00
1.310000000000000000e+02 0.000000000000000000e+00
1.320000000000000000e+02 0.000000000000000000e+00
1.330000000000000000e+02 0.000000000000000000e+00
1.340000000000000000e+02 0.000000000000000000e+00
1.350000000000000000e+02 0.000000000000000000e+00
1.360000000000000000e+02 0.000000000000000000e+00
1.370000000000000000e+02 0.000000000000000000e+00
1.380000000000000000e+02 0.000000000000000000e+00
1.390000000000000000e+02 0.000000000000000000e+00
1.400000000000000000e+02 0.000000000000000000e+00
1.410000000000000000e+02 0.000000000000000000e+00
1.420000000000000000e+02 0.000000000000000000e+00
1.430000000000000000e+02 0.000000000000000000e+00
1.440000000000000000e+02 0.000000000000000000e+00
1.450000000000000000e+02 0.000000000000000000e+00
1.460000000000000000e+02 0.000000000000000000e+00
1.470000000000000000e+02 0.000000000000000000e+00
1.480000000000000000e+02 0.000000000000000000e+00
1.490000000000000000e+02 0.000000000000000000e+00
1.500000000000000000e+02 0.000000000000000000e+00
1.510000000000000000e+02 0.000000000000000000e+00
1.520000000000000000e+02 0.000000000000000000e+00
1.530000000000000000e+02 0.000000000000000000e+00
1.540000000000000000e+02 0.000000000000000000e+00
1.550000000000000000e+02 0.000000000000000000e+00
1.560000000000000000e+02 1.179758525300559580e+00
1.570000000000000000e+02 1.176542589338291656e+01
1.580000000000000000e+02 3.847397245799622834e+00
1.590000000000000000e+02 2.066937490354678886e+01
1.600000000000000000e+02 4.837554052893556644e+01
1.610000000000000000e+02 7.172115639908753337e+01
1.620000000000000000e+02 9.665912353661070711e+01
1.630000000000000000e+02 1.345890410080894526e+02
1.640000000000000000e+02 2.021509405310095246e+02
1.650000000000000000e+02 2.278815868284588362e+02
1.660000000000000000e+02 2.363444028002489858e+02
1.670000000000000000e+02 2.719785255756066817e+02
1.680000000000000000e+02 3.330919437461101325e+02
1.690000000000000000e+02 4.075852285625398395e+02
1.700000000000000000e+02 4.565396015761095896e+02
1.710000000000000000e+02 4.760607247873884944e+02
1.720000000000000000e+02 5.099492561294337634e+02
1.730000000000000000e+02 4.436906662380756643e+02
1.740000000000000000e+02 2.943979474590319683e+02
1.750000000000000000e+02 1.812903492843807953e+02
1.760000000000000000e+02 1.967861984653671072e+02
1.770000000000000000e+02 1.060559875793418314e+02
1.780000000000000000e+02 4.542881293922396679e+01
1.790000000000000000e+02 4.938217728743264701e+01
1.800000000000000000e+02 6.687292173615429647e+01
1.810000000000000000e+02 4.110727924704436020e+01
1.820000000000000000e+02 2.755710656502806444e+01
1.830000000000000000e+02 4.764572271935309544e+01
1.840000000000000000e+02 8.603505096453018552e+01
1.850000000000000000e+02 9.328851938601947325e+01
1.860000000000000000e+02 9.727643810827626680e+01
1.870000000000000000e+02 1.132441635552792150e+02
1.880000000000000000e+02 1.122590563161169825e+02
1.890000000000000000e+02 5.924734079236690576e+01
1.900000000000000000e+02 6.849232733042899213e+01
1.910000000000000000e+02 1.363213907280655235e+02
1.920000000000000000e+02 1.702025813316738834e+02
1.930000000000000000e+02 1.161753985068438340e+02
1.940000000000000000e+02 1.233749734494916197e+02
1.950000000000000000e+02 7.282138093963843062e+01
1.960000000000000000e+02 5.987573624766672964e+01
1.970000000000000000e+02 1.225266744658784148e+02
1.980000000000000000e+02 1.260985176726819645e+02
1.990000000000000000e+02 1.426673146442649056e+02
2.000000000000000000e+02 1.512887144368387737e+02
2.010000000000000000e+02 1.425736436216552363e+02
2.020000000000000000e+02 1.306196300145199132e+02
2.030000000000000000e+02 1.181637256170918562e+02
2.040000000000000000e+02 1.486194204107037535e+02
2.050000000000000000e+02 1.705425709396390914e+02
2.060000000000000000e+02 1.355947531632443486e+02
2.070000000000000000e+02 8.207165280647215866e+01
2.080000000000000000e+02 1.042949411740307681e+02
2.090000000000000000e+02 1.548472484754202014e+02
2.100000000000000000e+02 1.719514870178350350e+02
2.110000000000000000e+02 1.176918986309894990e+02
2.120000000000000000e+02 1.533424003526245372e+02
2.130000000000000000e+02 1.710219076524262789e+02
2.140000000000000000e+02 1.696367001244554444e+02
2.150000000000000000e+02 1.866452165318399921e+02
2.160000000000000000e+02 1.222476109498131507e+02
2.170000000000000000e+02 5.349541492221486294e+01
2.180000000000000000e+02 4.592892382078413505e+01
2.190000000000000000e+02 9.111696142264597142e+01
2.200000000000000000e+02 1.060662938726403297e+02
2.210000000000000000e+02 1.505129201617927492e+02
2.220000000000000000e+02 1.298818038705661309e+02
2.230000000000000000e+02 8.174352080896071016e+01
2.240000000000000000e+02 1.021898242688239122e+02
2.250000000000000000e+02 8.729492562746312956e+01
2.260000000000000000e+02 1.038582953329186864e+02
2.270000000000000000e+02 1.523338428867688208e+02
2.280000000000000000e+02 1.785216824517738701e+02
2.290000000000000000e+02 8.963022698610240013e+01
2.300000000000000000e+02 1.253758957859814416e+02
2.310000000000000000e+02 1.569484224227338700e+02
2.320000000000000000e+02 1.398936080896080512e+02
2.330000000000000000e+02 1.413775729365410143e+02
2.340000000000000000e+02 2.037719615432488638e+02
2.350000000000000000e+02 1.862591336652145628e+02
2.360000000000000000e+02 1.695937722879066314e+02
2.370000000000000000e+02 2.358657115743614838e+02
2.380000000000000000e+02 2.871939292055594706e+02
2.390000000000000000e+02 3.174713444721012365e+02
2.400000000000000000e+02 3.063311145405519369e+02
2.410000000000000000e+02 3.113415846919717751e+02
2.420000000000000000e+02 4.243165904169268288e+02
2.430000000000000000e+02 4.282912284173407897e+02
2.440000000000000000e+02 5.137792939224227666e+02
2.450000000000000000e+02 6.186328781580580198e+02
2.460000000000000000e+02 6.448596608587432684e+02
2.470000000000000000e+02 6.912862397427924179e+02
2.480000000000000000e+02 8.032274340593237412e+02
2.490000000000000000e+02 9.059301231487239647e+02
2.500000000000000000e+02 1.011335757984237375e+03
2.510000000000000000e+02 1.202567686994401129e+03
2.520000000000000000e+02 1.358939672682016635e+03
2.530000000000000000e+02 1.562659051016174999e+03
2.540000000000000000e+02 1.811895398050194217e+03
2.550000000000000000e+02 2.067061812694464606e+03
2.560000000000000000e+02 2.311220976980507203e+03
2.570000000000000000e+02 2.531949435801700474e+03
2.580000000000000000e+02 2.548954955818295730e+03
2.590000000000000000e+02 2.258219643716297924e+03
2.600000000000000000e+02 1.675662365276910123e+03
2.610000000000000000e+02 1.249693328355112499e+03
2.620000000000000000e+02 9.629648983613312794e+02
2.630000000000000000e+02 7.559037801286012836e+02
2.640000000000000000e+02 5.936084885500921473e+02
2.650000000000000000e+02 4.852442640945870949e+02
2.660000000000000000e+02 4.547722795270685765e+02
2.670000000000000000e+02 3.847906651524553467e+02
2.680000000000000000e+02 2.931842705247878484e+02
2.690000000000000000e+02 2.935813148724332109e+02
2.700000000000000000e+02 2.702405755652353037e+02
2.710000000000000000e+02 2.833774924496988206e+02
2.720000000000000000e+02 2.701712131300569126e+02
2.730000000000000000e+02 2.131587199128818497e+02
2.740000000000000000e+02 2.317697507156191250e+02
2.750000000000000000e+02 2.651542706077574962e+02
2.760000000000000000e+02 2.259450062629624938e+02
2.770000000000000000e+02 1.475776321924909098e+02
2.780000000000000000e+02 9.895939090852506581e+01
2.790000000000000000e+02 9.129810138116946305e+00
2.800000000000000000e+02 4.107339250363148153e+01
2.810000000000000000e+02 7.875085909581098065e+01
2.820000000000000000e+02 3.431921442232031438e+01
2.830000000000000000e+02 6.620109963908413775e+00
2.840000000000000000e+02 6.990022149937776597e+00
2.850000000000000000e+02 3.076726695498810216e+01
2.860000000000000000e+02 1.565873470441938409e+01
2.870000000000000000e+02 4.769147767316437125e+01
2.880000000000000000e+02 2.775666579962701874e+01
2.890000000000000000e+02 5.353302719767572881e+01
2.900000000000000000e+02 1.027897210329806938e+02
2.910000000000000000e+02 8.105237935075714972e+01
2.920000000000000000e+02 3.987824228375831126e+01
2.930000000000000000e+02 1.203465568761681510e+02
2.940000000000000000e+02 2.091029754615230445e+02
2.950000000000000000e+02 2.558566158680771991e+02
2.960000000000000000e+02 2.666755551545322760e+02
2.970000000000000000e+02 2.716646359054141726e+02
2.980000000000000000e+02 3.312432665629546023e+02
2.990000000000000000e+02 3.572342151006016593e+02
3.000000000000000000e+02 3.626424553827012005e+02
3.010000000000000000e+02 4.201768722464234997e+02
3.020000000000000000e+02 5.617737744866185494e+02
3.030000000000000000e+02 6.037098048745071992e+02
3.040000000000000000e+02 6.465757252592262603e+02
3.050000000000000000e+02 7.057426876581622537e+02
3.060000000000000000e+02 6.704578289981342323e+02
3.070000000000000000e+02 5.758750095810878520e+02
3.080000000000000000e+02 4.485871400954158617e+02
3.090000000000000000e+02 3.262608894627676364e+02
3.100000000000000000e+02 2.302648280381581571e+02
3.110000000000000000e+02 1.559516105787176059e+02
3.120000000000000000e+02 1.253664967641567642e+02
3.130000000000000000e+02 1.287467705931152011e+02
3.140000000000000000e+02 1.226846218211984763e+02
3.150000000000000000e+02 7.437962660236402712e+01
3.160000000000000000e+02 2.792940797137536180e+00
3.170000000000000000e+02 2.823831442646893919e+01
3.180000000000000000e+02 6.005472000829700363e+01
3.190000000000000000e+02 6.631664457373922517e+01
3.200000000000000000e+02 9.206443372121995594e+01
3.210000000000000000e+02 4.811825863098965783e+01
3.220000000000000000e+02 4.996588790499867372e+01
3.230000000000000000e+02 7.424769557353234006e+01
3.240000000000000000e+02 7.250614001866857450e+01
3.250000000000000000e+02 4.976036316116986313e+01
3.260000000000000000e+02 3.459617763949392355e+01
3.270000000000000000e+02 5.454093300767431884e+01
3.280000000000000000e+02 9.156502772246454924e+01
3.290000000000000000e+02 1.088826896701929030e+02
3.300000000000000000e+02 4.838952290750726348e+01
3.310000000000000000e+02 5.001862760630624649e+01
3.320000000000000000e+02 7.722288247044212994e+01
3.330000000000000000e+02 9.720191180423059052e+01
3.340000000000000000e+02 9.891166375233308372e+01
3.350000000000000000e+02 6.554609526031873656e+01
3.360000000000000000e+02 4.690771499999999605e+01
3.370000000000000000e+02 5.523386328769910847e+01
3.380000000000000000e+02 5.028990668948468112e+01
3.390000000000000000e+02 2.632616230485284348e+01
3.400000000000000000e+02 6.934564721427701528e+00
3.410000000000000000e+02 1.623697712093133738e+00
3.420000000000000000e+02 1.687222428660307116e+01
3.430000000000000000e+02 2.370856711885501156e+01
3.440000000000000000e+02 1.788485828852963877e+01
3.450000000000000000e+02 2.042267770172185948e+01
3.460000000000000000e+02 1.467720912881149609e+01
3.470000000000000000e+02 4.816369915992530082e+01
3.480000000000000000e+02 5.508863171126226632e+01
3.490000000000000000e+02 1.587148312798252903e+01
3.500000000000000000e+02 2.283311370178376976e+01
3.510000000000000000e+02 5.206933532254745423e+00
3.520000000000000000e+02 1.014468472806460397e+01
3.530000000000000000e+02 2.212632793403877418e+00
3.540000000000000000e+02 2.596529163866424739e+00
3.550000000000000000e+02 5.595270443891186218e+00
3.560000000000000000e+02 1.777422333540748411e+01
3.570000000000000000e+02 3.765273922837558729e+01
3.580000000000000000e+02 5.694966763376179131e+01
3.590000000000000000e+02 6.094188149968885426e+01
3.600000000000000000e+02 4.224420315702143824e+01
3.610000000000000000e+02 4.447313330982995438e+01
3.620000000000000000e+02 6.578681219663945967e+01
3.630000000000000000e+02 3.823502477286862700e+01
3.640000000000000000e+02 8.053941047698116051e+01
3.650000000000000000e+02 4.721974421903978225e+01
3.660000000000000000e+02 2.647970396390874370e+01
3.670000000000000000e+02 8.030656484446245713e+01
3.680000000000000000e+02 8.158077900849129094e+00
3.690000000000000000e+02 2.604405621655369885e+01
3.700000000000000000e+02 7.632984225679265933e+01
3.710000000000000000e+02 9.248939670193016127e+01
3.720000000000000000e+02 4.830498776809832151e+01
3.730000000000000000e+02 4.241495750674131671e+01
3.740000000000000000e+02 4.704071941091035569e+01
3.750000000000000000e+02 1.061047097075276895e+02
3.760000000000000000e+02 1.866341106409460053e+02
3.770000000000000000e+02 1.913246092926779625e+02
3.780000000000000000e+02 1.097090193797974393e+02
3.790000000000000000e+02 3.232812820783995278e+01
3.800000000000000000e+02 5.903196084007521449e+01
3.810000000000000000e+02 1.774191135656503775e+02
3.820000000000000000e+02 2.819051733250377083e+02
3.830000000000000000e+02 2.386609639286444917e+02
3.840000000000000000e+02 2.536107152218999374e+02
3.850000000000000000e+02 2.777784752955819272e+02
3.860000000000000000e+02 2.796904556523547285e+02
3.870000000000000000e+02 3.175442884073007122e+02
3.880000000000000000e+02 4.185940777846902847e+02
3.890000000000000000e+02 4.496387292470443526e+02
3.900000000000000000e+02 4.754973527581922781e+02
3.910000000000000000e+02 5.866859342667478359e+02
3.920000000000000000e+02 7.609396803982555184e+02
3.930000000000000000e+02 7.676665142886769218e+02
3.940000000000000000e+02 8.338586464841316683e+02
3.950000000000000000e+02 9.839757076747550855e+02
3.960000000000000000e+02 1.156617358357529838e+03
3.970000000000000000e+02 1.329126269031321726e+03
3.980000000000000000e+02 1.334729473553204798e+03
3.990000000000000000e+02 1.503299644679532094e+03
4.000000000000000000e+02 1.659669354905620821e+03
4.010000000000000000e+02 1.684916888404896326e+03
4.020000000000000000e+02 1.812531018046047848e+03
4.030000000000000000e+02 1.922354385812074497e+03
4.040000000000000000e+02 2.016526333748186744e+03
4.050000000000000000e+02 2.087177165733249694e+03
4.060000000000000000e+02 2.130990595312174719e+03
4.070000000000000000e+02 2.164181312383323075e+03
4.080000000000000000e+02 2.180187258245177418e+03
4.090000000000000000e+02 2.094864068035679338e+03
4.100000000000000000e+02 1.947089633478534324e+03
4.110000000000000000e+02 1.809652178801078662e+03
4.120000000000000000e+02 1.695488575606721270e+03
4.130000000000000000e+02 1.545411807963501815e+03
4.140000000000000000e+02 1.298869756689481164e+03
4.150000000000000000e+02 1.051187226260111629e+03
4.160000000000000000e+02 8.820352211115706496e+02
4.170000000000000000e+02 7.221646349097673010e+02
4.180000000000000000e+02 6.038964894420232667e+02
4.190000000000000000e+02 4.874078824139380117e+02
4.200000000000000000e+02 4.113374618336437152e+02
4.210000000000000000e+02 3.887684666113647154e+02
4.220000000000000000e+02 3.345814155569394188e+02
4.230000000000000000e+02 2.691611470234405488e+02
4.240000000000000000e+02 2.483651911014312361e+02
4.250000000000000000e+02 2.272792805227137194e+02
4.260000000000000000e+02 1.850950847541999735e+02
4.270000000000000000e+02 2.161171955818294919e+02
4.280000000000000000e+02 1.816538234806056948e+02
4.290000000000000000e+02 1.547895939846505087e+02
4.300000000000000000e+02 1.502623131922836990e+02
4.310000000000000000e+02 1.486743647790914906e+02
4.320000000000000000e+02 1.516982924082140869e+02
4.330000000000000000e+02 1.591961037336653249e+02
4.340000000000000000e+02 1.368016172370870720e+02
4.350000000000000000e+02 9.077185258867389450e+01
4.360000000000000000e+02 8.186880906036000738e+01
4.370000000000000000e+02 1.872130284173434802e+02
4.380000000000000000e+02 2.057639937162997796e+02
4.390000000000000000e+02 1.579228729309282073e+02
4.400000000000000000e+02 1.269006462974483753e+02
4.410000000000000000e+02 1.219758717959366834e+02
4.420000000000000000e+02 6.879035218004567298e+01
4.430000000000000000e+02 1.148319707114698645e+02
4.440000000000000000e+02 1.339815314599751730e+02
4.450000000000000000e+02 1.076362471686371833e+02
4.460000000000000000e+02 7.018221985687632980e+01
4.470000000000000000e+02 4.891998403981743593e+01
4.480000000000000000e+02 6.815344721634544101e+01
4.490000000000000000e+02 1.300290844430619472e+02
4.500000000000000000e+02 1.193711870800484576e+02
4.510000000000000000e+02 2.432948031943553957e+01
4.520000000000000000e+02 3.037114597324125143e+01
4.530000000000000000e+02 7.472298431860409096e+01
4.540000000000000000e+02 1.105639890479149159e+02
4.550000000000000000e+02 1.003094007508814940e+02
4.560000000000000000e+02 6.919926164903677090e+01
4.570000000000000000e+02 1.040767778054312487e+01
4.580000000000000000e+02 7.631256891101237727e+01
4.590000000000000000e+02 6.398200291225928282e+01
4.600000000000000000e+02 4.605959970752936528e+01
4.610000000000000000e+02 5.337313142916425335e+01
4.620000000000000000e+02 4.321575381248703707e+01
4.630000000000000000e+02 8.452016205351569056e+01
4.640000000000000000e+02 1.067571574777015968e+02
4.650000000000000000e+02 6.764275395975873550e+01
4.660000000000000000e+02 2.712618881352432965e+01
4.670000000000000000e+02 5.375216991497305230e+01
4.680000000000000000e+02 5.585164040448077571e+01
4.690000000000000000e+02 1.058376230657544284e+02
4.700000000000000000e+02 5.291751134798931133e+01
4.710000000000000000e+02 1.172487088799004518e+01
4.720000000000000000e+02 6.033075966397122158e+01
4.730000000000000000e+02 8.380520644545825348e+01
4.740000000000000000e+02 9.530140563575996282e+01
4.750000000000000000e+02 1.329002092097062189e+02
4.760000000000000000e+02 1.521784526752384750e+02
4.770000000000000000e+02 1.006318334100818106e+02
4.780000000000000000e+02 1.133826037129148467e+01
4.790000000000000000e+02 2.972679364447203199e+01
4.800000000000000000e+02 3.531384170504020403e+01
4.810000000000000000e+02 5.197342931549528089e+01
4.820000000000000000e+02 2.138170172993225648e+01
4.830000000000000000e+02 7.374596707736986900e+01
4.840000000000000000e+02 2.298180999377722955e+01
4.850000000000000000e+02 2.662784857498518676e+01
4.860000000000000000e+02 5.191548685749864944e+01
4.870000000000000000e+02 5.014078505496771498e+01
4.880000000000000000e+02 2.701622322132309506e+01
4.890000000000000000e+02 2.214897606928015961e+01
4.900000000000000000e+02 8.005487045425928372e+00
4.910000000000000000e+02 2.218158944617227490e+01
4.920000000000000000e+02 2.577392378681165752e+01
4.930000000000000000e+02 1.957766289566469098e+01
4.940000000000000000e+02 2.998430136278776814e+01
4.950000000000000000e+02 3.346621130029026858e+01
4.960000000000000000e+02 5.667716207218428082e+01
4.970000000000000000e+02 5.996748514623531179e+01
4.980000000000000000e+02 1.893555203110718566e+01
4.990000000000000000e+02 1.084819775482269044e+01
5.000000000000000000e+02 5.131093982576273049e+01
5.010000000000000000e+02 6.759158990252969090e+01
5.020000000000000000e+02 4.608511074258406381e+01
5.030000000000000000e+02 2.933134955195999893e+01
5.040000000000000000e+02 2.462858915802611293e+01
5.050000000000000000e+02 4.651174540759106435e+01
5.060000000000000000e+02 4.489631059323622964e+01
5.070000000000000000e+02 7.727056614809939106e+01
5.080000000000000000e+02 1.731002686579563203e+02
5.090000000000000000e+02 9.254721958307470686e+01
5.100000000000000000e+02 9.840477107031728110e+01
5.110000000000000000e+02 1.002362000871189736e+02
5.120000000000000000e+02 7.209939521676059826e+01
5.130000000000000000e+02 7.735855686579441226e+01
5.140000000000000000e+02 1.166840939016802139e+02
5.150000000000000000e+02 7.533905094378741296e+01
5.160000000000000000e+02 1.141321636299525437e+02
5.170000000000000000e+02 1.557763893175690555e+02
5.180000000000000000e+02 2.177767207382829895e+02
5.190000000000000000e+02 2.902474655258245093e+02
5.200000000000000000e+02 3.000252538892349889e+02
5.210000000000000000e+02 3.667309246785568462e+02
5.220000000000000000e+02 4.393709881974701830e+02
5.230000000000000000e+02 4.752275691350342299e+02
5.240000000000000000e+02 5.107679110120285486e+02
5.250000000000000000e+02 6.114940947936123621e+02
5.260000000000000000e+02 7.320522860194978421e+02
5.270000000000000000e+02 7.955545013687270739e+02
5.280000000000000000e+02 9.575171851897957822e+02
5.290000000000000000e+02 1.102495872225679022e+03
5.300000000000000000e+02 1.156827683948569756e+03
5.310000000000000000e+02 1.284128592823065446e+03
5.320000000000000000e+02 1.372021686994399488e+03
5.330000000000000000e+02 1.275328227753577039e+03
5.340000000000000000e+02 1.137284492843808721e+03
5.350000000000000000e+02 1.000616180792369391e+03
5.360000000000000000e+02 7.844309104542620616e+02
5.370000000000000000e+02 5.946905033602997719e+02
5.380000000000000000e+02 4.878080242895678111e+02
5.390000000000000000e+02 3.637584231072393663e+02
5.400000000000000000e+02 2.816528433727442575e+02
5.410000000000000000e+02 2.920044812694465577e+02
5.420000000000000000e+02 2.358610187927819197e+02
5.430000000000000000e+02 1.840704400124461415e+02
5.440000000000000000e+02 2.054427065753980628e+02
5.450000000000000000e+02 2.011897706907286079e+02
5.460000000000000000e+02 1.405130453640329620e+02
5.470000000000000000e+02 1.060491312525908967e+02
5.480000000000000000e+02 1.737402783447420234e+02
5.490000000000000000e+02 1.248470735532039129e+02
5.500000000000000000e+02 1.147151276233911545e+02
5.510000000000000000e+02 1.554498516490354518e+02
5.520000000000000000e+02 1.528203524579962220e+02
5.530000000000000000e+02 1.647852423890497278e+02
5.540000000000000000e+02 2.011310665422102488e+02
5.550000000000000000e+02 2.249295373366518334e+02
5.560000000000000000e+02 1.899138379095825826e+02
5.570000000000000000e+02 1.565983758348886568e+02
5.580000000000000000e+02 2.354364545115093108e+02
5.590000000000000000e+02 2.966882559012658476e+02
5.600000000000000000e+02 1.979164790914760488e+02
5.610000000000000000e+02 2.295162390790265476e+02
5.620000000000000000e+02 3.405872276498652127e+02
5.630000000000000000e+02 3.330126518357185432e+02
5.640000000000000000e+02 3.118072762289982620e+02
5.650000000000000000e+02 3.858481983820808523e+02
5.660000000000000000e+02 4.329966400954161827e+02
5.670000000000000000e+02 4.175980482265080695e+02
5.680000000000000000e+02 3.585156690520665279e+02
5.690000000000000000e+02 3.107205853142498881e+02
5.700000000000000000e+02 4.283129416926015551e+02
5.710000000000000000e+02 5.185125590126506268e+02
5.720000000000000000e+02 5.104346758348909248e+02
5.730000000000000000e+02 4.959959287432578208e+02
5.740000000000000000e+02 5.432199212196632061e+02
5.750000000000000000e+02 5.670477097697576028e+02
5.760000000000000000e+02 5.301828578805482266e+02
5.770000000000000000e+02 4.943071459240821355e+02
5.780000000000000000e+02 5.240194031113875326e+02
5.790000000000000000e+02 5.712308875985067971e+02
5.800000000000000000e+02 5.604471354490773365e+02
5.810000000000000000e+02 6.088806919726208662e+02
5.820000000000000000e+02 6.411757175238479931e+02
5.830000000000000000e+02 6.757575936527708791e+02
5.840000000000000000e+02 6.517715762082523270e+02
5.850000000000000000e+02 5.956460428749232960e+02
5.860000000000000000e+02 6.581000730968687549e+02
5.870000000000000000e+02 6.251497660306912394e+02
5.880000000000000000e+02 6.246756386434351498e+02
5.890000000000000000e+02 5.784940063887188444e+02
5.900000000000000000e+02 5.135434702198259629e+02
5.910000000000000000e+02 4.705763709603823486e+02
5.920000000000000000e+02 3.305066721841947128e+02
5.930000000000000000e+02 3.308948233098301444e+02
5.940000000000000000e+02 2.933875788425625046e+02
5.950000000000000000e+02 2.478287801078612347e+02
5.960000000000000000e+02 2.401740141435086286e+02
5.970000000000000000e+02 2.162861530180447858e+02
5.980000000000000000e+02 1.460169142501586919e+02
5.990000000000000000e+02 1.117427559842361688e+02
6.000000000000000000e+02 1.149860848610541098e+02
6.010000000000000000e+02 1.200395646753788554e+02
6.020000000000000000e+02 9.719840796515417480e+01
6.030000000000000000e+02 4.909235940481203642e+01
6.040000000000000000e+02 4.015328593652746036e+01
6.050000000000000000e+02 8.885306124455442500e+01
6.060000000000000000e+02 6.363060624637075335e+01
6.070000000000000000e+02 3.268463921593088628e+01
6.080000000000000000e+02 7.998235076747576500e+01
6.090000000000000000e+02 6.013824847158790732e+01
6.100000000000000000e+02 8.100720100186727279e+01
6.110000000000000000e+02 5.529424562538983423e+01
6.120000000000000000e+02 6.004516534217662382e+01
6.130000000000000000e+02 2.968494488072811421e+01
6.140000000000000000e+02 1.238030051545554144e+01
6.150000000000000000e+02 6.582674231694805655e+01
6.160000000000000000e+02 1.998288556938103966e+01
6.170000000000000000e+02 2.303965801700803340e+01
6.180000000000000000e+02 3.283330038996062683e+01
6.190000000000000000e+02 3.480243127359430844e+01
6.200000000000000000e+02 4.619885070939662342e+01
6.210000000000000000e+02 1.153519486060966592e+01
6.220000000000000000e+02 2.262682337481861339e+01
6.230000000000000000e+02 2.088268982161368825e+01
6.240000000000000000e+02 6.668439757104603416e+01
6.250000000000000000e+02 1.128003625388918039e+02
6.260000000000000000e+02 2.624556269182864199e+01
6.270000000000000000e+02 3.093968945239806700e+01
6.280000000000000000e+02 7.262402895872257602e+01
6.290000000000000000e+02 7.492856861053465423e+01
6.300000000000000000e+02 3.057012090043274100e+01
6.310000000000000000e+02 1.658915536092020560e+01
6.320000000000000000e+02 3.940877478224987840e+01
6.330000000000000000e+02 1.106541565048733702e+02
6.340000000000000000e+02 1.069198453266949400e+02
6.350000000000000000e+02 4.317341527581646687e+01
6.360000000000000000e+02 3.652659993777213998e+01
6.370000000000000000e+02 1.023003465671022099e+02
6.380000000000000000e+02 4.527720253214327784e+01
6.390000000000000000e+02 5.239178172370922937e+01
6.400000000000000000e+02 1.420327652374994543e+01
6.410000000000000000e+02 5.864601445136183600e+01
6.420000000000000000e+02 9.730088251814764533e+01
6.430000000000000000e+02 6.798271818917266174e+00
6.440000000000000000e+02 8.796009769758473595e+00
6.450000000000000000e+02 1.025745625181508842e+02
6.460000000000000000e+02 1.162144556108689812e+02
6.470000000000000000e+02 1.282304794233572522e+02
6.480000000000000000e+02 1.735940523957688697e+02
6.490000000000000000e+02 1.770098713130055899e+02
6.500000000000000000e+02 1.232756721219667071e+02
6.510000000000000000e+02 1.743892834266742966e+02
6.520000000000000000e+02 2.085278526446794558e+02
6.530000000000000000e+02 1.910010538892341572e+02
6.540000000000000000e+02 1.691320096867870006e+02
6.550000000000000000e+02 1.831596036499377362e+02
6.560000000000000000e+02 1.894210475834888996e+02
6.570000000000000000e+02 1.894101285003111741e+02
6.580000000000000000e+02 1.461185927001245091e+02
6.590000000000000000e+02 1.103729476042314559e+02
6.600000000000000000e+02 1.523009473138347118e+02
6.610000000000000000e+02 2.078837029448361591e+02
6.620000000000000000e+02 8.857946589919103531e+01
6.630000000000000000e+02 1.546513147272339666e+02
6.640000000000000000e+02 1.667192037743674007e+02
6.650000000000000000e+02 1.606641343704624774e+02
6.660000000000000000e+02 1.693288936527692101e+02
6.670000000000000000e+02 1.463111570006223303e+02
6.680000000000000000e+02 1.741827325036299214e+02
6.690000000000000000e+02 1.496956484653673272e+02
6.700000000000000000e+02 1.547629164281268572e+02
6.710000000000000000e+02 2.176822357809573418e+02
6.720000000000000000e+02 2.539633169639158439e+02
6.730000000000000000e+02 2.064752084422320877e+02
6.740000000000000000e+02 1.865098851068244983e+02
6.750000000000000000e+02 1.848291170261301488e+02
6.760000000000000000e+02 2.044316936527688426e+02
6.770000000000000000e+02 2.686065378137296875e+02
6.780000000000000000e+02 2.674540609290756379e+02
6.790000000000000000e+02 1.352619250777858895e+02
6.800000000000000000e+02 1.635131478531419589e+02
6.810000000000000000e+02 1.779319612321095008e+02
6.820000000000000000e+02 1.730768509437876048e+02
6.830000000000000000e+02 2.049019678489939906e+02
6.840000000000000000e+02 1.992501304501157904e+02
6.850000000000000000e+02 9.491776785314152676e+01
6.860000000000000000e+02 9.462749451773588305e+01
6.870000000000000000e+02 1.817891092097061119e+02
6.880000000000000000e+02 2.314564931964318930e+02
6.890000000000000000e+02 1.625000815183617533e+02
6.900000000000000000e+02 9.083466228375880291e+01
6.910000000000000000e+02 1.136779363824926179e+02
6.920000000000000000e+02 1.317858710640939250e+02
6.930000000000000000e+02 1.553958035054963318e+02
6.940000000000000000e+02 1.168806491101441907e+02
6.950000000000000000e+02 9.465238304023191063e+01
6.960000000000000000e+02 1.377349451773485782e+02
6.970000000000000000e+02 1.920495323169470225e+02
6.980000000000000000e+02 1.228784558896722388e+02
6.990000000000000000e+02 1.027116487243310701e+02
7.000000000000000000e+02 1.122203553827009159e+02
7.010000000000000000e+02 1.153528427623392929e+02
7.020000000000000000e+02 1.669093447210078125e+02
7.030000000000000000e+02 1.831638350964489632e+02
7.040000000000000000e+02 4.572540690170288968e+01
7.050000000000000000e+02 1.999299999792518463e+02
7.060000000000000000e+02 1.223664696328639820e+02
7.070000000000000000e+02 6.878304772868645500e+01
7.080000000000000000e+02 1.112325921593003102e+02
7.090000000000000000e+02 1.601495323791751275e+02
7.100000000000000000e+02 1.299298967019294935e+02
7.110000000000000000e+02 9.393158188135259934e+01
7.120000000000000000e+02 9.485464225886725842e+01
7.130000000000000000e+02 1.217835336652150744e+02
7.140000000000000000e+02 1.619960047085672272e+02
7.150000000000000000e+02 1.537316026965353899e+02
7.160000000000000000e+02 6.909495917029400402e+01
7.170000000000000000e+02 1.255778375917746992e+01
7.180000000000000000e+02 1.321655954158932644e+01
7.190000000000000000e+02 3.721981027587511193e+01
7.200000000000000000e+02 3.446128509437781418e+01
7.210000000000000000e+02 1.777013151184191786e+00
7.220000000000000000e+02 2.470651632856202085e+01
7.230000000000000000e+02 6.399114848786605592e+01
7.240000000000000000e+02 2.030188411655028702e+01
7.250000000000000000e+02 1.562095694046849914e+01
7.260000000000000000e+02 2.330886650280020334e+01
7.270000000000000000e+02 6.836090946080405217e+01
7.280000000000000000e+02 8.141097073221280311e+01
7.290000000000000000e+02 5.801560639908775130e+00
7.300000000000000000e+02 6.455828323102595334e+01
7.310000000000000000e+02 6.145062323584254216e+01
7.320000000000000000e+02 5.863810876166796504e+01
7.330000000000000000e+02 5.471937051430890619e+01
7.340000000000000000e+02 3.166261075295421534e+01
7.350000000000000000e+02 3.891637560050249078e+01
7.360000000000000000e+02 1.410377792159350747e+02
7.370000000000000000e+02 1.390477620784516688e+01
7.380000000000000000e+02 2.398165929074954761e+01
7.390000000000000000e+02 9.852249283550864334e+01
7.400000000000000000e+02 1.033687521588572906e+02
7.410000000000000000e+02 8.536562690105787610e+00
7.420000000000000000e+02 4.509485822858323445e+01
7.430000000000000000e+02 5.296737354624633554e+01
7.440000000000000000e+02 4.387171942750449460e+01
7.450000000000000000e+02 7.901577039203588981e+01
7.460000000000000000e+02 7.086158213811458495e+01
7.470000000000000000e+02 4.708747053930774484e+01
7.480000000000000000e+02 7.223647088445896713e+01
7.490000000000000000e+02 6.689486077162490574e+01
7.500000000000000000e+02 1.434775367766296128e+01
7.510000000000000000e+02 3.226906391538685881e+01
7.520000000000000000e+02 2.114746077577247618e+01
7.530000000000000000e+02 4.099101363409982213e+01
7.540000000000000000e+02 3.576890307755805054e+01
7.550000000000000000e+02 2.419001713130055009e+01
7.560000000000000000e+02 5.225828142708927260e+01
7.570000000000000000e+02 5.639822652426352079e+01
7.580000000000000000e+02 1.783787042314803273e+01
7.590000000000000000e+02 5.511960191039332813e+01
7.600000000000000000e+02 7.863169945043432563e+01
7.610000000000000000e+02 3.266764730139470885e+00
7.620000000000000000e+02 6.958308969715623071e+00
7.630000000000000000e+02 3.953739779507012386e+00
7.640000000000000000e+02 3.571149192283799323e+01
7.650000000000000000e+02 1.616476929910918869e+01
7.660000000000000000e+02 3.640535320058260993e+01
7.670000000000000000e+02 5.524340171749188677e+00
7.680000000000000000e+02 1.821106477286920011e+01
7.690000000000000000e+02 9.645340553204670186e+01
7.700000000000000000e+02 2.838302855424329607e+01
7.710000000000000000e+02 2.247945227753553255e+01
7.720000000000000000e+02 5.398023150383316704e+00
7.730000000000000000e+02 9.232007945239518065e+00
7.740000000000000000e+02 1.309820425222995155e+01
7.750000000000000000e+02 8.351852585358354730e+00
7.760000000000000000e+02 1.412265752540970425e+02
7.770000000000000000e+02 9.796492332227190047e+01
7.780000000000000000e+02 1.308944721468676420e+01
7.790000000000000000e+02 2.906979666666628148e+01
7.800000000000000000e+02 8.315766341766666070e-01
7.810000000000000000e+02 9.641413480606038089e-01
7.820000000000000000e+02 1.579427267081542929e+01
7.830000000000000000e+02 1.308089460286202552e+02
7.840000000000000000e+02 1.337087667703788725e+02
7.850000000000000000e+02 5.107679203484738650e+01
7.860000000000000000e+02 6.630965327665015252e+01
7.870000000000000000e+02 1.534557786558806356e+02
7.880000000000000000e+02 1.233347108068865765e+02
7.890000000000000000e+02 1.533351361750678450e+02
7.900000000000000000e+02 1.839085956855425081e+02
7.910000000000000000e+02 2.037893447417547179e+02
7.920000000000000000e+02 2.184617773490978152e+02
7.930000000000000000e+02 2.081673220493673568e+02
7.940000000000000000e+02 2.501955571458183556e+02
7.950000000000000000e+02 4.542116611698825750e+02
7.960000000000000000e+02 5.257501990665834910e+02
7.970000000000000000e+02 5.203692117817880671e+02
7.980000000000000000e+02 6.100482810205353417e+02
7.990000000000000000e+02 7.889433237502576048e+02
8.000000000000000000e+02 9.393860771624125618e+02
8.010000000000000000e+02 1.053331029122588234e+03
8.020000000000000000e+02 1.327791619580998713e+03
8.030000000000000000e+02 1.595531476980500884e+03
8.040000000000000000e+02 1.883447876581619767e+03
8.050000000000000000e+02 2.281967662103305884e+03
8.060000000000000000e+02 2.744564717337196726e+03
8.070000000000000000e+02 3.313008787595926606e+03
8.080000000000000000e+02 4.039556932379161026e+03
8.090000000000000000e+02 4.694982582330972946e+03
8.100000000000000000e+02 5.461665558182937275e+03
8.110000000000000000e+02 6.495203187305511165e+03
8.120000000000000000e+02 7.498169378058883922e+03
8.130000000000000000e+02 8.460162732628066806e+03
8.140000000000000000e+02 9.488038322339734805e+03
8.150000000000000000e+02 1.050210578718107536e+04
8.160000000000000000e+02 1.118792100808960276e+04
8.170000000000000000e+02 1.142667910599460811e+04
8.180000000000000000e+02 1.119023865173199920e+04
8.190000000000000000e+02 1.044784269446171857e+04
8.200000000000000000e+02 9.264960265505067582e+03
8.210000000000000000e+02 7.895164663555305196e+03
8.220000000000000000e+02 6.655481618543831246e+03
8.230000000000000000e+02 5.502910640945827254e+03
8.240000000000000000e+02 4.463067492221553948e+03
8.250000000000000000e+02 3.829065711055814518e+03
8.260000000000000000e+02 3.381161510682450171e+03
8.270000000000000000e+02 2.961320523127993965e+03
8.280000000000000000e+02 2.632674026757944375e+03
8.290000000000000000e+02 2.477289131895486207e+03
8.300000000000000000e+02 2.299531830118235121e+03
8.310000000000000000e+02 2.182749252022401834e+03
8.320000000000000000e+02 2.273199973869762289e+03
8.330000000000000000e+02 2.317456627255755848e+03
8.340000000000000000e+02 2.396187706077578241e+03
8.350000000000000000e+02 2.579694359809209800e+03
8.360000000000000000e+02 2.802385053101026188e+03
8.370000000000000000e+02 3.331140080896095242e+03
8.380000000000000000e+02 4.008429521360401850e+03
8.390000000000000000e+02 4.687283381663523869e+03
8.400000000000000000e+02 5.665679118025360367e+03
8.410000000000000000e+02 6.864491711945202951e+03
8.420000000000000000e+02 8.128860074050969160e+03
8.430000000000000000e+02 9.540915689690857107e+03
8.440000000000000000e+02 1.125285849201407291e+04
8.450000000000000000e+02 1.269429827836544791e+04
8.460000000000000000e+02 1.443888653391408297e+04
8.470000000000000000e+02 1.614091780336029842e+04
8.480000000000000000e+02 1.748989091682223443e+04
8.490000000000000000e+02 1.827550110350549585e+04
8.500000000000000000e+02 1.805283739887988486e+04
8.510000000000000000e+02 1.655094204107028054e+04
8.520000000000000000e+02 1.421294074465873746e+04
8.530000000000000000e+02 1.148987239161987964e+04
8.540000000000000000e+02 9.168819587222482369e+03
8.550000000000000000e+02 7.283750172127682163e+03
8.560000000000000000e+02 5.738668815183636070e+03
8.570000000000000000e+02 4.571945018668286139e+03
8.580000000000000000e+02 3.735824984238871366e+03
8.590000000000000000e+02 2.951246367558617294e+03
8.600000000000000000e+02 2.370987314872447314e+03
8.610000000000000000e+02 1.992135686437169170e+03
8.620000000000000000e+02 1.701764561086913318e+03
8.630000000000000000e+02 1.351849543040866592e+03
8.640000000000000000e+02 1.049697861883035102e+03
8.650000000000000000e+02 1.013342929682637532e+03
8.660000000000000000e+02 8.791945773905811166e+02
8.670000000000000000e+02 8.493181588137695144e+02
8.680000000000000000e+02 6.848185309686706432e+02
8.690000000000000000e+02 5.586861923459846366e+02
8.700000000000000000e+02 5.109720067828234846e+02
8.710000000000000000e+02 4.652360358224414085e+02
8.720000000000000000e+02 4.271272756274638027e+02
8.730000000000000000e+02 4.445123393486836676e+02
8.740000000000000000e+02 3.879846874922190523e+02
8.750000000000000000e+02 2.877068161584717245e+02
8.760000000000000000e+02 3.039786281062009152e+02
8.770000000000000000e+02 3.126416774320688319e+02
8.780000000000000000e+02 2.723572383945241882e+02
8.790000000000000000e+02 3.044417824517740883e+02
8.800000000000000000e+02 3.692481921593037555e+02
8.810000000000000000e+02 2.033658071976720407e+02
8.820000000000000000e+02 2.518216060970566161e+02
8.830000000000000000e+02 2.714214904376662503e+02
8.840000000000000000e+02 1.854220568139348870e+02
8.850000000000000000e+02 1.396644311074261680e+02
8.860000000000000000e+02 1.681620574777039678e+02
8.870000000000000000e+02 1.181406470856661457e+02
8.880000000000000000e+02 1.256591545416855098e+02
8.890000000000000000e+02 2.125098088985672291e+02
8.900000000000000000e+02 2.730233574362158606e+02
8.910000000000000000e+02 2.753775834923268917e+02
8.920000000000000000e+02 3.002587460070527072e+02
8.930000000000000000e+02 3.689801636589921259e+02
8.940000000000000000e+02 4.147028805474912474e+02
8.950000000000000000e+02 4.008691342460073201e+02
8.960000000000000000e+02 4.922437917859388108e+02
8.970000000000000000e+02 6.071948776602372391e+02
8.980000000000000000e+02 5.667741574362144092e+02
8.990000000000000000e+02 5.511437308442239100e+02
9.000000000000000000e+02 5.508465419829889242e+02
9.010000000000000000e+02 4.545799873262780579e+02
9.020000000000000000e+02 3.223765452395754778e+02
9.030000000000000000e+02 2.103888879278181605e+02
9.040000000000000000e+02 1.221127903961821204e+02
9.050000000000000000e+02 8.138447021364842726e+01
9.060000000000000000e+02 2.812955740095427615e+01
9.070000000000000000e+02 3.371703849097678329e+01
9.080000000000000000e+02 6.179922904376684301e+01
9.090000000000000000e+02 2.456703851690436480e+01
9.100000000000000000e+02 2.389848295996696947e+01
9.110000000000000000e+02 2.564503403235155332e+01
9.120000000000000000e+02 3.075978546359700871e+01
9.130000000000000000e+02 3.179927352001704577e+01
9.140000000000000000e+02 9.009289514931569443e+01
9.150000000000000000e+02 5.712750602779409093e+01
9.160000000000000000e+02 1.063008361481021424e+01
9.170000000000000000e+02 1.870563719618413856e+01
9.180000000000000000e+02 7.476774142708994475e+01
9.190000000000000000e+02 2.156937318398671266e+01
9.200000000000000000e+02 1.537838688635433115e+01
9.210000000000000000e+02 3.178355026757935065e+01
9.220000000000000000e+02 2.909529123003501283e+01
9.230000000000000000e+02 6.462463814146413199e+01
9.240000000000000000e+02 1.940729635137938303e+01
9.250000000000000000e+02 3.437572412569959823e+01
9.260000000000000000e+02 1.789271159427533675e+01
9.270000000000000000e+02 6.936124583488906126e+01
9.280000000000000000e+02 2.770713163244139565e+01
9.290000000000000000e+02 1.404672969923253447e+02
9.300000000000000000e+02 1.927915616054763177e+02
9.310000000000000000e+02 1.572354776809798693e+02
9.320000000000000000e+02 1.673106997718313664e+02
9.330000000000000000e+02 2.705557830740493728e+02
9.340000000000000000e+02 4.035332704418145227e+02
9.350000000000000000e+02 4.462262724331048958e+02
9.360000000000000000e+02 6.472024693631998389e+02
9.370000000000000000e+02 7.651386376814577943e+02
9.380000000000000000e+02 9.240581964737622229e+02
9.390000000000000000e+02 1.108490153702551652e+03
9.400000000000000000e+02 1.288303057652418374e+03
9.410000000000000000e+02 1.634637690520634578e+03
9.420000000000000000e+02 1.906784180253068371e+03
9.430000000000000000e+02 2.296263608253827897e+03
9.440000000000000000e+02 2.675064979464834778e+03
9.450000000000000000e+02 2.982554527276490717e+03
9.460000000000000000e+02 3.193304249688922482e+03
9.470000000000000000e+02 3.194185090645097262e+03
9.480000000000000000e+02 2.931306527691361225e+03
9.490000000000000000e+02 2.516535536499385671e+03
9.500000000000000000e+02 2.039115608172588963e+03
9.510000000000000000e+02 1.557276721634523710e+03
9.520000000000000000e+02 1.262113173408006332e+03
9.530000000000000000e+02 9.651492028624767272e+02
9.540000000000000000e+02 7.880833481850239650e+02
9.550000000000000000e+02 6.835946506326448571e+02
9.560000000000000000e+02 5.051641026343040721e+02
9.570000000000000000e+02 3.809439528313623100e+02
9.580000000000000000e+02 4.275956070939632241e+02
9.590000000000000000e+02 3.871673919103947128e+02
9.600000000000000000e+02 2.903865711885463270e+02
9.610000000000000000e+02 3.082480294959528919e+02
9.620000000000000000e+02 3.210658246421914441e+02
9.630000000000000000e+02 2.868535045209473537e+02
9.640000000000000000e+02 2.770831068450518160e+02
9.650000000000000000e+02 2.715182452603237380e+02
9.660000000000000000e+02 1.359960203235178824e+02
9.670000000000000000e+02 1.434886682638455966e+02
9.680000000000000000e+02 1.213262344326903417e+02
9.690000000000000000e+02 1.715415001659064842e+02
9.700000000000000000e+02 8.754248525409352055e+01
9.710000000000000000e+02 4.795380257000776680e+01
9.720000000000000000e+02 1.110668708627118662e+02
9.730000000000000000e+02 8.241899024891091585e+01
9.740000000000000000e+02 1.050495679319645035e+02
9.750000000000000000e+02 7.140109950642985837e+01
9.760000000000000000e+02 1.449009810205302529e+02
9.770000000000000000e+02 7.192991761874783663e+01
9.780000000000000000e+02 1.081196381870955463e+02
9.790000000000000000e+02 6.777087163866912078e+01
9.800000000000000000e+02 5.937160573739917879e+01
9.810000000000000000e+02 3.313663642190473979e+01
9.820000000000000000e+02 2.571748724953236831e+01
9.830000000000000000e+02 9.210281094378682099e+01
9.840000000000000000e+02 1.237342728479568450e+02
9.850000000000000000e+02 5.403277910391963701e+01
9.860000000000000000e+02 2.692534005185654422e+01
9.870000000000000000e+02 7.196729647998540713e+01
9.880000000000000000e+02 1.300548075710449325e+02
9.890000000000000000e+02 1.448493202862473765e+02
9.900000000000000000e+02 1.080426480398262612e+02
9.910000000000000000e+02 1.021903339016774055e+02
9.920000000000000000e+02 4.094142577353891710e+01
9.930000000000000000e+02 1.001696112258859728e+02
9.940000000000000000e+02 4.762427132544803499e+01
9.950000000000000000e+02 5.073305636250792361e+01
9.960000000000000000e+02 8.898394075088175725e+01
9.970000000000000000e+02 1.166659152769120880e+02
9.980000000000000000e+02 1.630372581916217030e+02
9.990000000000000000e+02 1.354412982576227762e+02
1.000000000000000000e+03 9.796626471893794985e+01
1.001000000000000000e+03 1.565078585062227603e+02
1.002000000000000000e+03 6.760939319501892442e+01
1.003000000000000000e+03 1.153501427593342896e+02
1.004000000000000000e+03 1.056517183402449973e+02
1.005000000000000000e+03 2.164078708506256632e+01
1.006000000000000000e+03 9.897866906833982625e+00
1.007000000000000000e+03 7.323377560166186129e+01
1.008000000000000000e+03 1.556054846473011253e+02
1.009000000000000000e+03 1.817307804979242292e+02
1.010000000000000000e+03 1.073046397925329387e+02
1.011000000000000000e+03 9.051549792531112359e+01
1.012000000000000000e+03 1.172322823651454229e+02
1.013000000000000000e+03 8.102472112033336771e+01
1.014000000000000000e+03 8.059691682572713489e+01
1.015000000000000000e+03 1.763401995850608728e+02
1.016000000000000000e+03 1.983896340248952868e+02
1.017000000000000000e+03 8.991285676348550737e+01
1.018000000000000000e+03 9.988200705394280021e+01
1.019000000000000000e+03 1.147043847095425235e+02
1.020000000000000000e+03 3.175451135062495922e+01
1.021000000000000000e+03 2.112240800830067755e+01
1.022000000000000000e+03 1.009631317012426877e+02
1.023000000000000000e+03 1.394204580912860081e+02
1.024000000000000000e+03 1.242049514522823159e+02
1.025000000000000000e+03 1.350881244813260480e+02
1.026000000000000000e+03 9.039905995850705267e+01
1.027000000000000000e+03 9.962835714285685640e+01
1.028000000000000000e+03 7.440295134854599723e+01
1.029000000000000000e+03 1.799562883816780712e+01
1.030000000000000000e+03 7.604371502073999523e+01
1.031000000000000000e+03 1.199628265560158553e+02
1.032000000000000000e+03 9.353597356846364619e+01
1.033000000000000000e+03 7.273619087137504380e+01
1.034000000000000000e+03 6.132663211617969523e+01
1.035000000000000000e+03 1.557001372670793558e+02
1.036000000000000000e+03 5.831088454356704176e+01
1.037000000000000000e+03 7.007697292530947664e+01
1.038000000000000000e+03 2.107873919916909244e+01
1.039000000000000000e+03 2.516881814938257378e+01
1.040000000000000000e+03 8.935178336099150442e+01
1.041000000000000000e+03 1.236538485477177005e+02
1.042000000000000000e+03 1.136763535269698764e+02
1.043000000000000000e+03 8.678686327800552647e+01
1.044000000000000000e+03 7.492344481327594963e+01
1.045000000000000000e+03 1.209849579668026820e+02
1.046000000000000000e+03 9.073841794611848144e+00
1.047000000000000000e+03 1.525169695651944224e+01
1.048000000000000000e+03 7.467845730290487438e+01
1.049000000000000000e+03 7.634254157675964336e+01
1.050000000000000000e+03 6.361745265560265494e+01
1.051000000000000000e+03 7.353022302904743412e+01
1.052000000000000000e+03 4.374884340249057857e+01
1.053000000000000000e+03 8.181508659751223433e+01
1.054000000000000000e+03 4.754345840249198574e+01
1.055000000000000000e+03 4.795643336099582399e+01
1.056000000000000000e+03 4.899592478260842654e+01
1.057000000000000000e+03 7.870363900467616247e-01
1.058000000000000000e+03 4.310459020746939984e+01
1.059000000000000000e+03 8.379331128631636716e+01
1.060000000000000000e+03 2.080332470954210464e+02
1.061000000000000000e+03 7.218252315352671644e+01
1.062000000000000000e+03 9.135405263485463934e+01
1.063000000000000000e+03 5.588907912862681826e+01
1.064000000000000000e+03 1.024804768116008802e+01
1.065000000000000000e+03 2.242685157676354990e+01
1.066000000000000000e+03 4.792235369295133296e+01
1.067000000000000000e+03 5.615010983402767408e+01
1.068000000000000000e+03 7.939881278007796084e+01
1.069000000000000000e+03 1.162617105809122648e+02
1.070000000000000000e+03 9.788699134854874728e+01
1.071000000000000000e+03 1.455856624481398001e+02
1.072000000000000000e+03 6.620335144927499016e+01
1.073000000000000000e+03 9.883596846472902087e+01
1.074000000000000000e+03 5.186785858921633263e+01
1.075000000000000000e+03 2.888934327800676982e+01
1.076000000000000000e+03 1.323310763975196664e+02
1.077000000000000000e+03 1.891214518672200597e+02
1.078000000000000000e+03 1.627606531120343334e+02
1.079000000000000000e+03 1.438489977178424226e+02
1.080000000000000000e+03 1.386486259336110720e+02
1.081000000000000000e+03 1.539355016597528447e+02
1.082000000000000000e+03 9.669929340249069583e+01
1.083000000000000000e+03 1.534624489626576747e+02
1.084000000000000000e+03 5.613233522820319621e+01
1.085000000000000000e+03 3.219122904564089449e+00
1.086000000000000000e+03 2.732660547717873456e+01
1.087000000000000000e+03 1.303727580705799660e+01
1.088000000000000000e+03 2.525935060164960788e+01
1.089000000000000000e+03 8.467302547717973482e+01
1.090000000000000000e+03 2.686841937759550447e+01
1.091000000000000000e+03 1.100846161825719776e+02
1.092000000000000000e+03 1.793393809128615715e+02
1.093000000000000000e+03 1.443301440993776623e+02
1.094000000000000000e+03 4.733957392115350160e+01
1.095000000000000000e+03 1.034020378630744119e+01
1.096000000000000000e+03 5.332392219916966880e+00
1.097000000000000000e+03 7.260049155280330524e+01
1.098000000000000000e+03 1.440031443983442045e+02
1.099000000000000000e+03 1.177166178423224636e+02
1.100000000000000000e+03 1.206573545228205546e+02
1.101000000000000000e+03 6.976206489626518703e+01
1.102000000000000000e+03 6.353070004149720518e+01
1.103000000000000000e+03 7.489667877593236156e+00
1.104000000000000000e+03 6.189677321577214286e+01
1.105000000000000000e+03 7.809894811594190855e+01
1.106000000000000000e+03 6.178644825726158984e+01
1.107000000000000000e+03 6.609580344398381158e+01
1.108000000000000000e+03 4.894761103733932828e+01
1.109000000000000000e+03 5.152837327800406797e+01
1.110000000000000000e+03 1.377394417012454255e+02
1.111000000000000000e+03 1.328935757261400852e+02
1.112000000000000000e+03 1.183890232365127844e+02
1.113000000000000000e+03 1.365873571428573996e+02
1.114000000000000000e+03 1.065315975933596491e+02
1.115000000000000000e+03 9.446426792531153183e+01
1.116000000000000000e+03 1.185815340248942960e+02
1.117000000000000000e+03 1.124287573084880449e+02
1.118000000000000000e+03 8.127015271784128458e+01
1.119000000000000000e+03 9.699991074688431070e+01
1.120000000000000000e+03 1.456493657676338955e+02
1.121000000000000000e+03 1.527472865145211927e+02
1.122000000000000000e+03 6.245154428571996164e+01
1.123000000000000000e+03 4.722368294605836070e+01
1.124000000000000000e+03 1.084533369294535632e+01
1.125000000000000000e+03 3.236753908714188555e+01
1.126000000000000000e+03 1.072427983402448746e+02
1.127000000000000000e+03 1.246538468879670063e+02
1.128000000000000000e+03 8.725796894190683872e+01
1.129000000000000000e+03 1.175751172406692149e+02
1.130000000000000000e+03 1.626300020746922428e+02
1.131000000000000000e+03 6.149449199170165770e+01
1.132000000000000000e+03 1.061556659751050802e+02
1.133000000000000000e+03 5.967147120331929955e+01
1.134000000000000000e+03 1.675799265010354588e+02
1.135000000000000000e+03 1.309301375518600707e+02
1.136000000000000000e+03 7.104249383817661112e+01
1.137000000000000000e+03 9.559605099584814525e+01
1.138000000000000000e+03 1.063788213692941866e+02
1.139000000000000000e+03 1.184903029045709388e+02
1.140000000000000000e+03 1.637480863070549617e+02
1.141000000000000000e+03 1.191200903734438441e+02
1.142000000000000000e+03 4.072373761905249268e+01
1.143000000000000000e+03 1.295685450207455460e+02
1.144000000000000000e+03 8.808364649377718081e+01
1.145000000000000000e+03 5.854387255186719585e+01
1.146000000000000000e+03 1.183962734161475794e+02
1.147000000000000000e+03 1.217670763485496934e+02
1.148000000000000000e+03 5.956298427385775085e+01
1.149000000000000000e+03 5.831917485473997687e+00
1.150000000000000000e+03 2.790275924480936709e+01
1.151000000000000000e+03 8.888626917184237186e+01
1.152000000000000000e+03 8.417480981327950929e+01
1.153000000000000000e+03 7.775973546056590635e+01
1.154000000000000000e+03 6.548334624481503852e+01
1.155000000000000000e+03 4.085132995851130033e+01
1.156000000000000000e+03 2.091015136929528637e+02
1.157000000000000000e+03 1.773469219917077737e+02
1.158000000000000000e+03 2.009658473029030858e+02
1.159000000000000000e+03 2.284895504149353371e+02
1.160000000000000000e+03 1.890064771784237792e+02
1.161000000000000000e+03 1.389230819502097631e+02
1.162000000000000000e+03 1.085946078838175168e+02
1.163000000000000000e+03 1.211853844720494209e+02
1.164000000000000000e+03 9.925030323651525066e+01
1.165000000000000000e+03 1.336621000000000095e+02
1.166000000000000000e+03 7.071900556016271366e+01
1.167000000000000000e+03 3.364391049689386648e+01
1.168000000000000000e+03 6.242722968879529333e+01
1.169000000000000000e+03 1.582554607883847098e+02
1.170000000000000000e+03 1.535832130705380223e+02
1.171000000000000000e+03 4.592401581781177100e+01
1.172000000000000000e+03 3.395151057261597316e+01
1.173000000000000000e+03 1.168363041493788046e+02
1.174000000000000000e+03 7.577434871370087421e+01
1.175000000000000000e+03 8.354104523809319005e+00
1.176000000000000000e+03 3.483443981328056083e+01
1.177000000000000000e+03 3.366400815352711362e+01
1.178000000000000000e+03 8.677606489626225539e+01
1.179000000000000000e+03 1.067943927536231854e+02
1.180000000000000000e+03 1.042018736099570475e+02
1.181000000000000000e+03 3.667145307054428827e+01
1.182000000000000000e+03 8.644488630705120613e+01
1.183000000000000000e+03 1.524270825726100327e+02
1.184000000000000000e+03 1.154590228215725745e+02
1.185000000000000000e+03 1.522089450207467110e+02
1.186000000000000000e+03 1.527580977178425314e+02
1.187000000000000000e+03 1.607855356846468169e+02
1.188000000000000000e+03 1.345915058091306662e+02
1.189000000000000000e+03 1.017815746887967094e+02
1.190000000000000000e+03 9.288028398340222225e+01
1.191000000000000000e+03 7.416204041494019350e+01
1.192000000000000000e+03 3.832340831950255478e+01
1.193000000000000000e+03 3.437393076763543576e+01
1.194000000000000000e+03 1.445476117012269412e+01
1.195000000000000000e+03 9.657425242736528048e+01
1.196000000000000000e+03 2.754530981366460196e+02
1.197000000000000000e+03 2.049787941908602988e+02
1.198000000000000000e+03 7.926946348548233345e+01
1.199000000000000000e+03 6.788916531120275977e+01
1.200000000000000000e+03 9.596886254658458881e+01
1.201000000000000000e+03 8.944245421161920717e+01
1.202000000000000000e+03 4.154614076763790820e+01
1.203000000000000000e+03 9.570430273858940851e+00
1.204000000000000000e+03 3.109660158592659940e+01
1.205000000000000000e+03 8.374074854771461673e+01
1.206000000000000000e+03 1.216755551867214535e+02
1.207000000000000000e+03 1.272927477178404843e+02
1.208000000000000000e+03 9.313318761904737642e+01
1.209000000000000000e+03 4.970463335270202521e+01
1.210000000000000000e+03 2.652979979460456050e+01
1.211000000000000000e+03 8.223855089211886593e+01
1.212000000000000000e+03 7.041041686721868587e+01
1.213000000000000000e+03 1.542586684647301922e+02
1.214000000000000000e+03 1.002562776348492264e+02
1.215000000000000000e+03 8.128949962655526917e+01
1.216000000000000000e+03 9.473133643153487071e+01
1.217000000000000000e+03 4.344210705393858518e+01
1.218000000000000000e+03 5.631044141079536303e+01
1.219000000000000000e+03 8.252061288382260784e+01
1.220000000000000000e+03 2.308631410788401439e+01
1.221000000000000000e+03 6.912709493775574643e+00
1.222000000000000000e+03 3.174062323650041506e+01
1.223000000000000000e+03 1.454133112033213990e+02
1.224000000000000000e+03 4.597486917012221141e+01
1.225000000000000000e+03 1.247111005797105854e+01
1.226000000000000000e+03 6.845836904563757486e+00
1.227000000000000000e+03 4.488882948132798134e+01
1.228000000000000000e+03 3.615258037759983978e+01
1.229000000000000000e+03 8.602631681158963772e+01
1.230000000000000000e+03 8.297740423236788843e+01
1.231000000000000000e+03 3.150790639004329208e+01
1.232000000000000000e+03 4.729874585061737946e+01
1.233000000000000000e+03 1.366744588796736792e+01
1.234000000000000000e+03 2.945611614107962595e+01
1.235000000000000000e+03 5.443477053941730048e+01
1.236000000000000000e+03 2.461600124274234602e+01
1.237000000000000000e+03 1.436840011179973153e+01
1.238000000000000000e+03 1.529954207468906588e+02
1.239000000000000000e+03 7.378728821576677888e+01
1.240000000000000000e+03 3.182340601659689128e+01
1.241000000000000000e+03 5.320624101449345034e+01
1.242000000000000000e+03 7.332713721991838440e+01
1.243000000000000000e+03 1.256720981950153089e+02
1.244000000000000000e+03 9.308014190871514870e+01
1.245000000000000000e+03 2.986280047715993646e+00
1.246000000000000000e+03 2.552681008298056398e+01
1.247000000000000000e+03 4.832282593361348688e+01
1.248000000000000000e+03 2.909101336100059143e+01
1.249000000000000000e+03 1.991647253111998168e+02
1.250000000000000000e+03 9.840191153527467804e+01
1.251000000000000000e+03 5.608192807053939788e+01
1.252000000000000000e+03 7.005819993776212584e+01
1.253000000000000000e+03 1.829905798755190744e+02
1.254000000000000000e+03 1.053852721991731300e+02
1.255000000000000000e+03 1.501470572614183823e+02
1.256000000000000000e+03 1.168605928215588960e+02
1.257000000000000000e+03 4.440821925310950036e+01
1.258000000000000000e+03 1.100838583402502593e+02
1.259000000000000000e+03 1.158257248962623009e+02
1.260000000000000000e+03 5.951303900414676207e+01
1.261000000000000000e+03 8.796843064315342531e+01
1.262000000000000000e+03 7.512916307053109222e+01
1.263000000000000000e+03 8.338778282158050104e+01
1.264000000000000000e+03 8.822273593361846622e+01
1.265000000000000000e+03 6.522667970954333327e+01
1.266000000000000000e+03 7.149478855073363093e+01
1.267000000000000000e+03 5.868307396264783904e+01
1.268000000000000000e+03 9.789813782157624189e+01
1.269000000000000000e+03 7.551165489626481531e+01
1.270000000000000000e+03 1.245993590062096814e+02
1.271000000000000000e+03 1.215376231535250326e+02
1.272000000000000000e+03 6.877903170124560006e+01
1.273000000000000000e+03 9.644902887967283789e+01
1.274000000000000000e+03 1.241316121739268112e+02
1.275000000000000000e+03 1.237107085062240941e+02
1.276000000000000000e+03 8.103461869295522035e+01
1.277000000000000000e+03 8.739734317426820098e+01
1.278000000000000000e+03 1.247566294605813653e+02
1.279000000000000000e+03 8.599158269709417368e+01
1.280000000000000000e+03 9.457498074688746215e+01
1.281000000000000000e+03 7.915673788381864995e+01
1.282000000000000000e+03 1.547788402489619273e+02
1.283000000000000000e+03 1.327952900414848614e+02
1.284000000000000000e+03 8.234505000000014263e+01
1.285000000000000000e+03 1.100696718257249103e+02
1.286000000000000000e+03 7.889215348547462270e+01
1.287000000000000000e+03 4.358235547716334679e+01
1.288000000000000000e+03 1.417794381742747305e+02
1.289000000000000000e+03 1.053139838174265606e+02
1.290000000000000000e+03 5.622307813278337107e+01
1.291000000000000000e+03 9.501065558091815433e+01
1.292000000000000000e+03 1.155520396265516325e+01
1.293000000000000000e+03 2.951726078838474265e+01
1.294000000000000000e+03 6.925956823651445404e+01
1.295000000000000000e+03 1.299180221325360307e+01
1.296000000000000000e+03 6.496870103734713098e+01
1.297000000000000000e+03 1.130659912863072947e+02
1.298000000000000000e+03 1.017469742738604737e+02
1.299000000000000000e+03 7.203542343685298022e+01
1.300000000000000000e+03 1.045049255186771546e+02
1.301000000000000000e+03 1.645155147302909882e+02
1.302000000000000000e+03 1.194700053319557753e+02
1.303000000000000000e+03 3.746345095238146428e+01
1.304000000000000000e+03 7.968696705394395963e+01
1.305000000000000000e+03 1.038872716597556547e+02
1.306000000000000000e+03 1.232619630290485446e+01
1.307000000000000000e+03 7.580418244813297513e+00
1.308000000000000000e+03 0.000000000000000000e+00
1.309000000000000000e+03 0.000000000000000000e+00
1.310000000000000000e+03 0.000000000000000000e+00
1.311000000000000000e+03 0.000000000000000000e+00
1.312000000000000000e+03 0.000000000000000000e+00
1.313000000000000000e+03 0.000000000000000000e+00
1.314000000000000000e+03 0.000000000000000000e+00
1.315000000000000000e+03 0.000000000000000000e+00
1.316000000000000000e+03 0.000000000000000000e+00
1.317000000000000000e+03 0.000000000000000000e+00
1.318000000000000000e+03 0.000000000000000000e+00
1.319000000000000000e+03 0.000000000000000000e+00
1.320000000000000000e+03 0.000000000000000000e+00
1.321000000000000000e+03 0.000000000000000000e+00
1.322000000000000000e+03 0.000000000000000000e+00
1.323000000000000000e+03 0.000000000000000000e+00
1.324000000000000000e+03 0.000000000000000000e+00
1.325000000000000000e+03 0.000000000000000000e+00
1.326000000000000000e+03 0.000000000000000000e+00
1.327000000000000000e+03 0.000000000000000000e+00
1.328000000000000000e+03 0.000000000000000000e+00
1.329000000000000000e+03 0.000000000000000000e+00
1.330000000000000000e+03 0.000000000000000000e+00
1.331000000000000000e+03 0.000000000000000000e+00
1.332000000000000000e+03 0.000000000000000000e+00
1.333000000000000000e+03 0.000000000000000000e+00
1.334000000000000000e+03 0.000000000000000000e+00
1.335000000000000000e+03 0.000000000000000000e+00
1.336000000000000000e+03 0.000000000000000000e+00
1.337000000000000000e+03 0.000000000000000000e+00
1.338000000000000000e+03 0.000000000000000000e+00
1.339000000000000000e+03 0.000000000000000000e+00
1.340000000000000000e+03 0.000000000000000000e+00
1.341000000000000000e+03 0.000000000000000000e+00
1.342000000000000000e+03 0.000000000000000000e+00
1.343000000000000000e+03 0.000000000000000000e+00
1.344000000000000000e+03 0.000000000000000000e+00
1.345000000000000000e+03 0.000000000000000000e+00
1.346000000000000000e+03 0.000000000000000000e+00
1.347000000000000000e+03 0.000000000000000000e+00
1.348000000000000000e+03 0.000000000000000000e+00
1.349000000000000000e+03 0.000000000000000000e+00
1.350000000000000000e+03 0.000000000000000000e+00
1.351000000000000000e+03 0.000000000000000000e+00
1.352000000000000000e+03 0.000000000000000000e+00
1.353000000000000000e+03 0.000000000000000000e+00
1.354000000000000000e+03 0.000000000000000000e+00
1.355000000000000000e+03 0.000000000000000000e+00
1.356000000000000000e+03 0.000000000000000000e+00
1.357000000000000000e+03 0.000000000000000000e+00
1.358000000000000000e+03 0.000000000000000000e+00
1.359000000000000000e+03 0.000000000000000000e+00
1.360000000000000000e+03 0.000000000000000000e+00
1.361000000000000000e+03 0.000000000000000000e+00
1.362000000000000000e+03 0.000000000000000000e+00
1.363000000000000000e+03 0.000000000000000000e+00
1.364000000000000000e+03 0.000000000000000000e+00
1.365000000000000000e+03 0.000000000000000000e+00
1.366000000000000000e+03 0.000000000000000000e+00
1.367000000000000000e+03 0.000000000000000000e+00
1.368000000000000000e+03 0.000000000000000000e+00
1.369000000000000000e+03 0.000000000000000000e+00
1.370000000000000000e+03 0.000000000000000000e+00
1.371000000000000000e+03 0.000000000000000000e+00
1.372000000000000000e+03 0.000000000000000000e+00
1.373000000000000000e+03 0.000000000000000000e+00
1.374000000000000000e+03 0.000000000000000000e+00
1.375000000000000000e+03 0.000000000000000000e+00
1.376000000000000000e+03 0.000000000000000000e+00
1.377000000000000000e+03 0.000000000000000000e+00
1.378000000000000000e+03 0.000000000000000000e+00
1.379000000000000000e+03 0.000000000000000000e+00
1.380000000000000000e+03 0.000000000000000000e+00
1.381000000000000000e+03 0.000000000000000000e+00
1.382000000000000000e+03 0.000000000000000000e+00
1.383000000000000000e+03 0.000000000000000000e+00
1.384000000000000000e+03 0.000000000000000000e+00
1.385000000000000000e+03 0.000000000000000000e+00
1.386000000000000000e+03 0.000000000000000000e+00
1.387000000000000000e+03 0.000000000000000000e+00
1.388000000000000000e+03 0.000000000000000000e+00
1.389000000000000000e+03 0.000000000000000000e+00
1.390000000000000000e+03 0.000000000000000000e+00
1.391000000000000000e+03 0.000000000000000000e+00
1.392000000000000000e+03 0.000000000000000000e+00
1.393000000000000000e+03 0.000000000000000000e+00
1.394000000000000000e+03 0.000000000000000000e+00
1.395000000000000000e+03 0.000000000000000000e+00
1.396000000000000000e+03 0.000000000000000000e+00
1.397000000000000000e+03 0.000000000000000000e+00
1.398000000000000000e+03 0.000000000000000000e+00
1.399000000000000000e+03 0.000000000000000000e+00
1.400000000000000000e+03 0.000000000000000000e+00
1.401000000000000000e+03 0.000000000000000000e+00
1.402000000000000000e+03 0.000000000000000000e+00
1.403000000000000000e+03 0.000000000000000000e+00
1.404000000000000000e+03 0.000000000000000000e+00
1.405000000000000000e+03 0.000000000000000000e+00
1.406000000000000000e+03 0.000000000000000000e+00
1.407000000000000000e+03 0.000000000000000000e+00
1.408000000000000000e+03 0.000000000000000000e+00
1.409000000000000000e+03 0.000000000000000000e+00
1.410000000000000000e+03 0.000000000000000000e+00
1.411000000000000000e+03 0.000000000000000000e+00
1.412000000000000000e+03 0.000000000000000000e+00
1.413000000000000000e+03 0.000000000000000000e+00
1.414000000000000000e+03 0.000000000000000000e+00
1.415000000000000000e+03 0.000000000000000000e+00
1.416000000000000000e+03 0.000000000000000000e+00
1.417000000000000000e+03 0.000000000000000000e+00
1.418000000000000000e+03 0.000000000000000000e+00
1.419000000000000000e+03 0.000000000000000000e+00
1.420000000000000000e+03 0.000000000000000000e+00
1.421000000000000000e+03 0.000000000000000000e+00
1.422000000000000000e+03 0.000000000000000000e+00
1.423000000000000000e+03 0.000000000000000000e+00
1.424000000000000000e+03 0.000000000000000000e+00
1.425000000000000000e+03 0.000000000000000000e+00
1.426000000000000000e+03 0.000000000000000000e+00
1.427000000000000000e+03 0.000000000000000000e+00
1.428000000000000000e+03 0.000000000000000000e+00
1.429000000000000000e+03 0.000000000000000000e+00
1.430000000000000000e+03 0.000000000000000000e+00
1.431000000000000000e+03 0.000000000000000000e+00
1.432000000000000000e+03 0.000000000000000000e+00
1.433000000000000000e+03 0.000000000000000000e+00
1.434000000000000000e+03 0.000000000000000000e+00
1.435000000000000000e+03 0.000000000000000000e+00
1.436000000000000000e+03 0.000000000000000000e+00
1.437000000000000000e+03 0.000000000000000000e+00
1.438000000000000000e+03 0.000000000000000000e+00
1.439000000000000000e+03 0.000000000000000000e+00
1.440000000000000000e+03 0.000000000000000000e+00
1.441000000000000000e+03 0.000000000000000000e+00
1.442000000000000000e+03 0.000000000000000000e+00
1.443000000000000000e+03 0.000000000000000000e+00
1.444000000000000000e+03 0.000000000000000000e+00
1.445000000000000000e+03 0.000000000000000000e+00
1.446000000000000000e+03 0.000000000000000000e+00
1.447000000000000000e+03 0.000000000000000000e+00
1.448000000000000000e+03 0.000000000000000000e+00
1.449000000000000000e+03 0.000000000000000000e+00
1.450000000000000000e+03 0.000000000000000000e+00
1.451000000000000000e+03 0.000000000000000000e+00
1.452000000000000000e+03 0.000000000000000000e+00
1.453000000000000000e+03 0.000000000000000000e+00
1.454000000000000000e+03 0.000000000000000000e+00
1.455000000000000000e+03 0.000000000000000000e+00
1.456000000000000000e+03 0.000000000000000000e+00
1.457000000000000000e+03 0.000000000000000000e+00
1.458000000000000000e+03 0.000000000000000000e+00
1.459000000000000000e+03 0.000000000000000000e+00
1.460000000000000000e+03 0.000000000000000000e+00
1.461000000000000000e+03 0.000000000000000000e+00
1.462000000000000000e+03 0.000000000000000000e+00
1.463000000000000000e+03 0.000000000000000000e+00
1.464000000000000000e+03 0.000000000000000000e+00
1.465000000000000000e+03 0.000000000000000000e+00
1.466000000000000000e+03 0.000000000000000000e+00
1.467000000000000000e+03 0.000000000000000000e+00
1.468000000000000000e+03 0.000000000000000000e+00
1.469000000000000000e+03 0.000000000000000000e+00
1.470000000000000000e+03 0.000000000000000000e+00
1.471000000000000000e+03 0.000000000000000000e+00
1.472000000000000000e+03 0.000000000000000000e+00
1.473000000000000000e+03 0.000000000000000000e+00
1.474000000000000000e+03 0.000000000000000000e+00
1.475000000000000000e+03 0.000000000000000000e+00
1.476000000000000000e+03 0.000000000000000000e+00
1.477000000000000000e+03 0.000000000000000000e+00
1.478000000000000000e+03 0.000000000000000000e+00
1.479000000000000000e+03 0.000000000000000000e+00
1.480000000000000000e+03 0.000000000000000000e+00
1.481000000000000000e+03 0.000000000000000000e+00
1.482000000000000000e+03 0.000000000000000000e+00
1.483000000000000000e+03 0.000000000000000000e+00
1.484000000000000000e+03 0.000000000000000000e+00
1.485000000000000000e+03 0.000000000000000000e+00
1.486000000000000000e+03 0.000000000000000000e+00
1.487000000000000000e+03 0.000000000000000000e+00
1.488000000000000000e+03 0.000000000000000000e+00
1.489000000000000000e+03 0.000000000000000000e+00
1.490000000000000000e+03 0.000000000000000000e+00
1.491000000000000000e+03 0.000000000000000000e+00
1.492000000000000000e+03 0.000000000000000000e+00
1.493000000000000000e+03 0.000000000000000000e+00
1.494000000000000000e+03 0.000000000000000000e+00
1.495000000000000000e+03 0.000000000000000000e+00
1.496000000000000000e+03 0.000000000000000000e+00
1.497000000000000000e+03 0.000000000000000000e+00
1.498000000000000000e+03 0.000000000000000000e+00
1.499000000000000000e+03 0.000000000000000000e+00
1.500000000000000000e+03 0.000000000000000000e+00
