1.010000000000000000e+02 0.000000000000000000e+00
1.020000000000000000e+02 0.000000000000000000e+00
1.030000000000000000e+02 0.000000000000000000e+00
1.040000000000000000e+02 0.000000000000000000e+00
1.050000000000000000e+02 0.000000000000000000e+00
1.060000000000000000e+02 0.000000000000000000e+00
1.070000000000000000e+02 0.000000000000000000e+00
1.080000000000000000e+02 0.000000000000000000e+00
1.090000000000000000e+02 0.000000000000000000e+00
1.100000000000000000e+02 0.000000000000000000e+00
1.110000000000000000e+02 0.000000000000000000e+00
1.120000000000000000e+02 0.000000000000000000e+00
1.130000000000000000e+02 0.000000000000000000e+00
1.140000000000000000e+02 0.000000000000000000e+00
1.150000000000000000e+02 0.000000000000000000e+00
1.160000000000000000e+02 0.000000000000000000e+00
1.170000000000000000e+02 0.000000000000000000e+00
1.180000000000000000e+02 0.000000000000000000e+00
1.190000000000000000e+02 0.000000000000000000e+00
1.200000000000000000e+02 0.000000000000000000e+00
1.210000000000000000e+02 0.000000000000000000e+00
1.220000000000000000e+02 0.000000000000000000e+00
1.230000000000000000e+02 0.000000000000000000e+00
1.240000000000000000e+02 0.000000000000000000e+00
1.250000000000000000e+02 0.000000000000000000e+00
1.260000000000000000e+02 0.000000000000000000e+00
1.270000000000000000e+02 0.000000000000000000e+00
1.280000000000000000e+02 0.000000000000000000e+00
1.290000000000000000e+02 0.000000000000000000e+00
1.300000000000000000e+02 0.000000000000000000e+00
1.310000000000000000e+02 0.000000000000000000e+00
1.320000000000000000e+02 0.000000000000000000e+00
1.330000000000000000e+02 0.000000000000000000e+00
1.340000000000000000e+02 0.000000000000000000e+00
1.350000000000000000e+02 0.000000000000000000e+00
1.360000000000000000e+02 0.000000000000000000e+00
1.370000000000000000e+02 0.000000000000000000e+00
1.380000000000000000e+02 0.000000000000000000e+00
1.390000000000000000e+02 0.000000000000000000e+00
1.400000000000000000e+02 0.000000000000000000e+00
1.410000000000000000e+02 0.000000000000000000e+00
1.420000000000000000e+02 0.000000000000000000e+00
1.430000000000000000e+02 0.000000000000000000e+00
1.440000000000000000e+02 0.000000000000000000e+00
1.450000000000000000e+02 0.000000000000000000e+00
1.460000000000000000e+02 0.000000000000000000e+00
1.470000000000000000e+02 0.000000000000000000e+00
1.480000000000000000e+02 0.000000000000000000e+00
1.490000000000000000e+02 0.000000000000000000e+00
1.500000000000000000e+02 0.000000000000000000e+00
1.510000000000000000e+02 0.000000000000000000e+00
1.520000000000000000e+02 0.000000000000000000e+00
1.530000000000000000e+02 0.000000000000000000e+00
1.540000000000000000e+02 0.000000000000000000e+00
1.550000000000000000e+02 0.000000000000000000e+00
1.560000000000000000e+02 0.000000000000000000e+00
1.570000000000000000e+02 0.000000000000000000e+00
1.580000000000000000e+02 0.000000000000000000e+00
1.590000000000000000e+02 0.000000000000000000e+00
1.600000000000000000e+02 0.000000000000000000e+00
1.610000000000000000e+02 0.000000000000000000e+00
1.620000000000000000e+02 0.000000000000000000e+00
1.630000000000000000e+02 0.000000000000000000e+00
1.640000000000000000e+02 0.000000000000000000e+00
1.650000000000000000e+02 0.000000000000000000e+00
1.660000000000000000e+02 0.000000000000000000e+00
1.670000000000000000e+02 0.000000000000000000e+00
1.680000000000000000e+02 0.000000000000000000e+00
1.690000000000000000e+02 0.000000000000000000e+00
1.700000000000000000e+02 0.000000000000000000e+00
1.710000000000000000e+02 0.000000000000000000e+00
1.720000000000000000e+02 0.000000000000000000e+00
1.730000000000000000e+02 0.000000000000000000e+00
1.740000000000000000e+02 0.000000000000000000e+00
1.750000000000000000e+02 0.000000000000000000e+00
1.760000000000000000e+02 0.000000000000000000e+00
1.770000000000000000e+02 2.922538674548925020e+00
1.780000000000000000e+02 1.733226555278980507e+00
1.790000000000000000e+02 9.949356982579852016e+00
1.800000000000000000e+02 2.659818434971987955e+01
1.810000000000000000e+02 1.073144067828242783e+02
1.820000000000000000e+02 2.105654318606106017e+02
1.830000000000000000e+02 2.166671077162408210e+02
1.840000000000000000e+02 1.283840358846712206e+02
1.850000000000000000e+02 1.435601241651102669e+02
1.860000000000000000e+02 2.697458980709391199e+02
1.870000000000000000e+02 3.425410711055797037e+02
1.880000000000000000e+02 4.283407905621240843e+02
1.890000000000000000e+02 7.182192086289138615e+02
1.900000000000000000e+02 8.643661288736766437e+02
1.910000000000000000e+02 1.037968299439952261e+03
1.920000000000000000e+02 1.275357298485792171e+03
1.930000000000000000e+02 1.522352189133138381e+03
1.940000000000000000e+02 1.775945915992529990e+03
1.950000000000000000e+02 2.004169322339765813e+03
1.960000000000000000e+02 2.165312679527069577e+03
1.970000000000000000e+02 2.254255419207633167e+03
1.980000000000000000e+02 2.313390235843186019e+03
1.990000000000000000e+02 2.286713256170918157e+03
2.000000000000000000e+02 2.274837100808961168e+03
2.010000000000000000e+02 2.195393598630989345e+03
2.020000000000000000e+02 1.952560772038997584e+03
2.030000000000000000e+02 1.931950608380004496e+03
2.040000000000000000e+02 1.915027425637833858e+03
2.050000000000000000e+02 1.883835006222775519e+03
2.060000000000000000e+02 1.859621647376063265e+03
2.070000000000000000e+02 1.776251680771624933e+03
2.080000000000000000e+02 1.898240408628916612e+03
2.090000000000000000e+02 1.998646874299937735e+03
2.100000000000000000e+02 2.054231593944421093e+03
2.110000000000000000e+02 2.304910034432688008e+03
2.120000000000000000e+02 2.537947616262188603e+03
2.130000000000000000e+02 2.615087752177519633e+03
2.140000000000000000e+02 2.571835958307405235e+03
2.150000000000000000e+02 2.484935986102469542e+03
2.160000000000000000e+02 2.272027034840314627e+03
2.170000000000000000e+02 1.979806865795475687e+03
2.180000000000000000e+02 1.652471528935904871e+03
2.190000000000000000e+02 1.329916744296974230e+03
2.200000000000000000e+02 1.042025811242484224e+03
2.210000000000000000e+02 8.294708650902282443e+02
2.220000000000000000e+02 6.418577358639283830e+02
2.230000000000000000e+02 4.353485077162425227e+02
2.240000000000000000e+02 2.015071192698621587e+02
2.250000000000000000e+02 1.387142598216129556e+02
2.260000000000000000e+02 3.964119289773989152e+01
2.270000000000000000e+02 1.199991463708007018e+02
2.280000000000000000e+02 3.047282775357862761e+01
2.290000000000000000e+02 1.539091905413815553e+01
2.300000000000000000e+02 5.404817475321472386e+01
2.310000000000000000e+02 2.503215808338526216e+01
2.320000000000000000e+02 1.959197556316123467e+01
2.330000000000000000e+02 6.346015583367957902e+01
2.340000000000000000e+02 3.909846069695044690e+01
2.350000000000000000e+02 5.037925364033216669e-01
2.360000000000000000e+02 4.508756713130005522e+01
2.370000000000000000e+02 8.058265030491735104e+01
2.380000000000000000e+02 2.352700125865938574e+01
2.390000000000000000e+02 2.268591566894843368e+02
2.400000000000000000e+02 4.714111571043349613e+02
2.410000000000000000e+02 5.546992102675785645e+02
2.420000000000000000e+02 6.646884770379605243e+02
2.430000000000000000e+02 8.512986630159730339e+02
2.440000000000000000e+02 1.063166938104127894e+03
2.450000000000000000e+02 1.301230028002486961e+03
2.460000000000000000e+02 1.593596880522715992e+03
2.470000000000000000e+02 1.963491989836137009e+03
2.480000000000000000e+02 2.524445732628085352e+03
2.490000000000000000e+02 2.976472747977596100e+03
2.500000000000000000e+02 3.371896384695141933e+03
2.510000000000000000e+02 4.059769258867460849e+03
2.520000000000000000e+02 4.752416156813941598e+03
2.530000000000000000e+02 5.519496650352548386e+03
2.540000000000000000e+02 6.445767909354894073e+03
2.550000000000000000e+02 7.514310960174249885e+03
2.560000000000000000e+02 8.532380291165496601e+03
2.570000000000000000e+02 9.833155034432686080e+03
2.580000000000000000e+02 1.107697003111386766e+04
2.590000000000000000e+02 1.210386737453339447e+04
2.600000000000000000e+02 1.302007365276914061e+04
2.610000000000000000e+02 1.392243157643642553e+04
2.620000000000000000e+02 1.436615932794026230e+04
2.630000000000000000e+02 1.417679171748598856e+04
2.640000000000000000e+02 1.340154215308026505e+04
2.650000000000000000e+02 1.241497878033604502e+04
2.660000000000000000e+02 1.131975290811032210e+04
2.670000000000000000e+02 1.004717896038163599e+04
2.680000000000000000e+02 8.707478736984050556e+03
2.690000000000000000e+02 7.525766397635374233e+03
2.700000000000000000e+02 6.313473602364649196e+03
2.710000000000000000e+02 5.385047867869744550e+03
2.720000000000000000e+02 4.650266496577484759e+03
2.730000000000000000e+02 3.962663871188563462e+03
2.740000000000000000e+02 3.380469431238333073e+03
2.750000000000000000e+02 2.850282572287911080e+03
2.760000000000000000e+02 2.518584328909168562e+03
2.770000000000000000e+02 2.287413116988174352e+03
2.780000000000000000e+02 1.993378257622899355e+03
2.790000000000000000e+02 1.820731480091248159e+03
2.800000000000000000e+02 1.694701628085457514e+03
2.810000000000000000e+02 1.537365540024886513e+03
2.820000000000000000e+02 1.327306752540972639e+03
2.830000000000000000e+02 1.122348266334782238e+03
2.840000000000000000e+02 1.115150273745333834e+03
2.850000000000000000e+02 9.334130885708417509e+02
2.860000000000000000e+02 7.537375654428551570e+02
2.870000000000000000e+02 8.001110280796349343e+02
2.880000000000000000e+02 6.791895358431875138e+02
2.890000000000000000e+02 5.353233330844233251e+02
2.900000000000000000e+02 5.461274737813737374e+02
2.910000000000000000e+02 5.892975662518150557e+02
2.920000000000000000e+02 4.313287849408840202e+02
2.930000000000000000e+02 4.349550739887999384e+02
2.940000000000000000e+02 5.423040972619797913e+02
2.950000000000000000e+02 5.186401272142703647e+02
2.960000000000000000e+02 3.684932263638244194e+02
2.970000000000000000e+02 4.384896640945876243e+02
2.980000000000000000e+02 4.828950979879693932e+02
2.990000000000000000e+02 3.898282101016426964e+02
3.000000000000000000e+02 3.427990600290413568e+02
3.010000000000000000e+02 4.672348349097715072e+02
3.020000000000000000e+02 3.795393345986329905e+02
3.030000000000000000e+02 4.458944996058885977e+02
3.040000000000000000e+02 4.628902123600192340e+02
3.050000000000000000e+02 4.068105433520008205e+02
3.060000000000000000e+02 4.885617889234601421e+02
3.070000000000000000e+02 4.098278388428050221e+02
3.080000000000000000e+02 3.430136243725368104e+02
3.090000000000000000e+02 3.142327102675795913e+02
3.100000000000000000e+02 2.997931572376608074e+02
3.110000000000000000e+02 3.355987197261981123e+02
3.120000000000000000e+02 3.062187531425013844e+02
3.130000000000000000e+02 1.993992458523408118e+02
3.140000000000000000e+02 1.881196286869961796e+02
3.150000000000000000e+02 3.690247046670834834e+02
3.160000000000000000e+02 3.905469165525832409e+02
3.170000000000000000e+02 3.483290124662914877e+02
3.180000000000000000e+02 2.403585171955996032e+02
3.190000000000000000e+02 1.623226657539910889e+02
3.200000000000000000e+02 2.727611188550077372e+02
3.210000000000000000e+02 3.041613834889027430e+02
3.220000000000000000e+02 2.754226490976980131e+02
3.230000000000000000e+02 1.867672753992969206e+02
3.240000000000000000e+02 1.041895025264464891e+02
3.250000000000000000e+02 2.085430373988799602e+02
3.260000000000000000e+02 1.202555256793203142e+02
3.270000000000000000e+02 9.098061862684028256e+01
3.280000000000000000e+02 1.191768275461522961e+02
3.290000000000000000e+02 8.798554735532033533e+01
3.300000000000000000e+02 3.817411797179594402e+01
3.310000000000000000e+02 4.701357295996690056e+01
3.320000000000000000e+02 2.368010360091251343e+01
3.330000000000000000e+02 5.609023532559096736e+01
3.340000000000000000e+02 6.183172814561084607e+01
3.350000000000000000e+02 9.062759951047735285e+01
3.360000000000000000e+02 6.575976499999998737e+01
3.370000000000000000e+02 2.778718624559124351e+01
3.380000000000000000e+02 5.788747097075223280e+01
3.390000000000000000e+02 7.327057732890914110e+01
3.400000000000000000e+02 1.695385416303723858e+01
3.410000000000000000e+02 2.466746039618302078e+01
3.420000000000000000e+02 7.965735523434260301e+01
3.430000000000000000e+02 5.491208507778497250e+01
3.440000000000000000e+02 1.364133761460251648e+01
3.450000000000000000e+02 1.655863646338893957e+01
3.460000000000000000e+02 6.646168482679999556e+01
3.470000000000000000e+02 9.540449274424402404e+01
3.480000000000000000e+02 3.567049787181286291e+01
3.490000000000000000e+02 1.054292768720185620e+02
3.500000000000000000e+02 7.252409154500267618e+01
3.510000000000000000e+02 4.102891948765815755e+01
3.520000000000000000e+02 1.218061144181744169e+02
3.530000000000000000e+02 2.804344304915979933e+02
3.540000000000000000e+02 1.536700470856703760e+02
3.550000000000000000e+02 1.620199586807694914e+02
3.560000000000000000e+02 2.344331968678694409e+02
3.570000000000000000e+02 3.224110624766618116e+02
3.580000000000000000e+02 5.210846876607216700e+02
3.590000000000000000e+02 4.707115259074880100e+02
3.600000000000000000e+02 5.047421117195598299e+02
3.610000000000000000e+02 7.378060483201991246e+02
3.620000000000000000e+02 9.728501267579334808e+02
3.630000000000000000e+02 8.511735384152660799e+02
3.640000000000000000e+02 9.337138814807155995e+02
3.650000000000000000e+02 1.082024160755032881e+03
3.660000000000000000e+02 1.173615276291226337e+03
3.670000000000000000e+02 1.219777329738696380e+03
3.680000000000000000e+02 1.344903880730142191e+03
3.690000000000000000e+02 1.557304721219669318e+03
3.700000000000000000e+02 1.721858972204935526e+03
3.710000000000000000e+02 1.754664533291851740e+03
3.720000000000000000e+02 1.684991671852306808e+03
3.730000000000000000e+02 1.984127166148100741e+03
3.740000000000000000e+02 2.054120663970130863e+03
3.750000000000000000e+02 2.145107638456747736e+03
3.760000000000000000e+02 2.338496114499067062e+03
3.770000000000000000e+02 2.548865643020119478e+03
3.780000000000000000e+02 2.995340223605058782e+03
3.790000000000000000e+02 2.835090785521670568e+03
3.800000000000000000e+02 2.661124275046670846e+03
3.810000000000000000e+02 2.824470132752540849e+03
3.820000000000000000e+02 3.036455639286457881e+03
3.830000000000000000e+02 2.918155084422316577e+03
3.840000000000000000e+02 3.016845265864787962e+03
3.850000000000000000e+02 3.077325577473555313e+03
3.860000000000000000e+02 3.051569708774116407e+03
3.870000000000000000e+02 3.218670222314393413e+03
3.880000000000000000e+02 3.363050089193110580e+03
3.890000000000000000e+02 3.594467587429986906e+03
3.900000000000000000e+02 3.870456271671508603e+03
3.910000000000000000e+02 4.071105849201409455e+03
3.920000000000000000e+02 4.147880047500517321e+03
3.930000000000000000e+02 4.269709252592284429e+03
3.940000000000000000e+02 4.428382060360920150e+03
3.950000000000000000e+02 4.636340111595102826e+03
3.960000000000000000e+02 4.849523489008712204e+03
3.970000000000000000e+02 4.952261352209085999e+03
3.980000000000000000e+02 4.988334775357810031e+03
3.990000000000000000e+02 5.102249887367768679e+03
4.000000000000000000e+02 5.241297957477703676e+03
4.010000000000000000e+02 5.383841276083801858e+03
4.020000000000000000e+02 5.574444778884047992e+03
4.030000000000000000e+02 5.573647515245797877e+03
4.040000000000000000e+02 5.424520237917440681e+03
4.050000000000000000e+02 5.277606061398051679e+03
4.060000000000000000e+02 5.188658986517322774e+03
4.070000000000000000e+02 5.024931520846294916e+03
4.080000000000000000e+02 4.935913898568762306e+03
4.090000000000000000e+02 4.746801754200377218e+03
4.100000000000000000e+02 4.483468585148315469e+03
4.110000000000000000e+02 4.268265485169052226e+03
4.120000000000000000e+02 4.149654271935284669e+03
4.130000000000000000e+02 3.841103972210702977e+03
4.140000000000000000e+02 3.652455436009126061e+03
4.150000000000000000e+02 3.487206608587429400e+03
4.160000000000000000e+02 3.198682554749064366e+03
4.170000000000000000e+02 2.960281625388920475e+03
4.180000000000000000e+02 2.921230429993776852e+03
4.190000000000000000e+02 2.686448607216928394e+03
4.200000000000000000e+02 2.364950892345979355e+03
4.210000000000000000e+02 2.186182878888429059e+03
4.220000000000000000e+02 2.167636031113877834e+03
4.230000000000000000e+02 1.870574742999385990e+03
4.240000000000000000e+02 1.724004376892761002e+03
4.250000000000000000e+02 1.638121955610870828e+03
4.260000000000000000e+02 1.470112431860611423e+03
4.270000000000000000e+02 1.380296355942750097e+03
4.280000000000000000e+02 1.336034157851068130e+03
4.290000000000000000e+02 1.302163640531010287e+03
4.300000000000000000e+02 1.103910055590120919e+03
4.310000000000000000e+02 8.335796021157431142e+02
4.320000000000000000e+02 9.614232612528525124e+02
4.330000000000000000e+02 9.993715711470645147e+02
4.340000000000000000e+02 9.828111848786554674e+02
4.350000000000000000e+02 8.098322998133132842e+02
4.360000000000000000e+02 5.328541924082187506e+02
4.370000000000000000e+02 5.490987568346831722e+02
4.380000000000000000e+02 6.538580818125261658e+02
4.390000000000000000e+02 5.899855674341449685e+02
4.400000000000000000e+02 4.290072114499098461e+02
4.410000000000000000e+02 3.441288336789697837e+02
4.420000000000000000e+02 3.998729078406972803e+02
4.430000000000000000e+02 2.532954352001680434e+02
4.440000000000000000e+02 2.417426434881786861e+02
4.450000000000000000e+02 2.118638569383944059e+02
4.460000000000000000e+02 9.399476884878673388e+01
4.470000000000000000e+02 1.275335232683536617e+02
4.480000000000000000e+02 1.543148291433312522e+02
4.490000000000000000e+02 5.160901939016754625e+01
4.500000000000000000e+02 6.620136208004757350e+01
4.510000000000000000e+02 1.137148320472939105e+02
4.520000000000000000e+02 1.360017892345982773e+02
4.530000000000000000e+02 9.985983137108487995e+01
4.540000000000000000e+02 1.315454120721853428e+02
4.550000000000000000e+02 8.900297470648921205e+01
4.560000000000000000e+02 8.636514516282861820e+00
4.570000000000000000e+02 1.316309142957790890e+01
4.580000000000000000e+02 8.701962866210214997e+01
4.590000000000000000e+02 6.025419700684412305e+01
4.600000000000000000e+02 1.488366576436422690e+02
4.610000000000000000e+02 1.391412431445758955e+02
4.620000000000000000e+02 1.282163398050196861e+02
4.630000000000000000e+02 4.852604431238361116e+01
4.640000000000000000e+02 8.289684365484271211e+01
4.650000000000000000e+02 8.687373096245563886e+01
4.660000000000000000e+02 1.079355303090653990e+02
4.670000000000000000e+02 2.499814048734965866e+02
4.680000000000000000e+02 2.469643921593030882e+02
4.690000000000000000e+02 2.793743007882187044e+02
4.700000000000000000e+02 2.889962708004978822e+02
4.710000000000000000e+02 2.061095729931549556e+02
4.720000000000000000e+02 1.272712041692607698e+02
4.730000000000000000e+02 2.929221704479463142e+02
4.740000000000000000e+02 1.945090726197945230e+02
4.750000000000000000e+02 3.460459805849368422e+02
4.760000000000000000e+02 2.244117978432196594e+02
4.770000000000000000e+02 2.658036594897329792e+02
4.780000000000000000e+02 3.524099280232371711e+02
4.790000000000000000e+02 3.250123921593030900e+02
4.800000000000000000e+02 3.851000434142297308e+02
4.810000000000000000e+02 3.563274696950822999e+02
4.820000000000000000e+02 4.393339085874286525e+02
4.830000000000000000e+02 3.995039771831552571e+02
4.840000000000000000e+02 3.998056733042936912e+02
4.850000000000000000e+02 4.900493785936577638e+02
4.860000000000000000e+02 5.803574556316106055e+02
4.870000000000000000e+02 4.618367387056614461e+02
4.880000000000000000e+02 3.016821455714558624e+02
4.890000000000000000e+02 1.813435871810810909e+02
4.900000000000000000e+02 3.595262087741183450e+02
4.910000000000000000e+02 3.644159939016825547e+02
4.920000000000000000e+02 2.197694157610952175e+02
4.930000000000000000e+02 2.100946328147689712e+02
4.940000000000000000e+02 1.619223058908951884e+02
4.950000000000000000e+02 2.598543419120684348e+02
4.960000000000000000e+02 2.486582454262589579e+02
4.970000000000000000e+02 1.870150407591787598e+02
4.980000000000000000e+02 1.889409993363760805e+02
4.990000000000000000e+02 1.471706867828278007e+02
5.000000000000000000e+02 2.272631845052899848e+02
5.010000000000000000e+02 1.690531531936945839e+02
5.020000000000000000e+02 2.643288090852529990e+02
5.030000000000000000e+02 2.461196579755253708e+02
5.040000000000000000e+02 1.387961232268757215e+02
5.050000000000000000e+02 2.714588559427494374e+02
5.060000000000000000e+02 2.500846774113226445e+02
5.070000000000000000e+02 9.456692236050903944e+01
5.080000000000000000e+02 5.751948326073339501e+01
5.090000000000000000e+02 6.239014821406502875e+01
5.100000000000000000e+02 1.602360155756037940e+01
5.110000000000000000e+02 3.344884538477511882e+01
5.120000000000000000e+02 8.628912690313738310e+00
5.130000000000000000e+02 5.494254582036720080e+01
5.140000000000000000e+02 8.299258200373529348e+01
5.150000000000000000e+02 9.323199631611780092e+01
5.160000000000000000e+02 2.918298340593188556e+01
5.170000000000000000e+02 4.622992306367989102e+01
5.180000000000000000e+02 2.370611865201161095e+01
5.190000000000000000e+02 7.093888061605650819e+01
5.200000000000000000e+02 1.455690296411531790e+02
5.210000000000000000e+02 1.027466258399005170e+02
5.220000000000000000e+02 1.978506634515676978e+02
5.230000000000000000e+02 2.176282665214682197e+02
5.240000000000000000e+02 1.455793537951057033e+02
5.250000000000000000e+02 1.602422906243521084e+02
5.260000000000000000e+02 1.926226292055590079e+02
5.270000000000000000e+02 1.348930240978842221e+02
5.280000000000000000e+02 1.809772806471692093e+02
5.290000000000000000e+02 2.207042913295998687e+02
5.300000000000000000e+02 1.729378673164660540e+02
5.310000000000000000e+02 2.246558353453638688e+02
5.320000000000000000e+02 2.210414502800250034e+02
5.330000000000000000e+02 1.572934901680146140e+02
5.340000000000000000e+02 1.674277172993151623e+02
5.350000000000000000e+02 2.692561547396794595e+02
5.360000000000000000e+02 3.333125851690521131e+02
5.370000000000000000e+02 3.348327504044804641e+02
5.380000000000000000e+02 3.228895141671856095e+02
5.390000000000000000e+02 2.642151236050611374e+02
5.400000000000000000e+02 2.761371291640739400e+02
5.410000000000000000e+02 2.304100892345982743e+02
5.420000000000000000e+02 2.055057564405726680e+02
5.430000000000000000e+02 1.815987156606526582e+02
5.440000000000000000e+02 1.935695817050403491e+02
5.450000000000000000e+02 2.156914743414226905e+02
5.460000000000000000e+02 2.402026056004978898e+02
5.470000000000000000e+02 2.516495144753196485e+02
5.480000000000000000e+02 3.351846005393080645e+02
5.490000000000000000e+02 3.677694464219044335e+02
5.500000000000000000e+02 4.343490280796323191e+02
5.510000000000000000e+02 4.405303913503446438e+02
5.520000000000000000e+02 2.948756990458442147e+02
5.530000000000000000e+02 2.395175147449189694e+02
5.540000000000000000e+02 3.192888012652956036e+02
5.550000000000000000e+02 2.836237493466120441e+02
5.560000000000000000e+02 1.466155739112433025e+02
5.570000000000000000e+02 1.020424074507349843e+02
5.580000000000000000e+02 2.635752562331413174e+02
5.590000000000000000e+02 2.886882578303258811e+02
5.600000000000000000e+02 2.556436133167392484e+02
5.610000000000000000e+02 3.394008545944797675e+02
5.620000000000000000e+02 4.272884600912666997e+02
5.630000000000000000e+02 4.037923193735746281e+02
5.640000000000000000e+02 5.395651261978845241e+02
5.650000000000000000e+02 4.993748561916596600e+02
5.660000000000000000e+02 5.539807410910639192e+02
5.670000000000000000e+02 4.914053916614748800e+02
5.680000000000000000e+02 2.916437682845917152e+02
5.690000000000000000e+02 2.697643394523956886e+02
5.700000000000000000e+02 2.804860638664183057e+02
5.710000000000000000e+02 2.860806265712508321e+02
5.720000000000000000e+02 2.451131803982591748e+02
5.730000000000000000e+02 2.489771431356247149e+02
5.740000000000000000e+02 3.028693719352842209e+02
5.750000000000000000e+02 2.452503990043571491e+02
5.760000000000000000e+02 2.065719532973868411e+02
5.770000000000000000e+02 2.730760619166148331e+02
5.780000000000000000e+02 1.849634200373370163e+02
5.790000000000000000e+02 1.251268299460823386e+01
5.800000000000000000e+02 1.785996033976464759e+01
5.810000000000000000e+02 8.903622166977859820e+01
5.820000000000000000e+02 1.258817892471863757e+02
5.830000000000000000e+02 1.117240754324753453e+02
5.840000000000000000e+02 4.751371840697183302e+01
5.850000000000000000e+02 1.233188739473119426e+02
5.860000000000000000e+02 6.359650502385461124e+01
5.870000000000000000e+02 6.612212978432330601e+01
5.880000000000000000e+02 1.347303736154322280e+02
5.890000000000000000e+02 6.138245624559058911e+01
5.900000000000000000e+02 1.530708549979262898e+02
5.910000000000000000e+02 1.343030783654843674e+02
5.920000000000000000e+02 1.335642584940885342e+02
5.930000000000000000e+02 8.546615197428425859e+01
5.940000000000000000e+02 1.346435731798397057e+02
5.950000000000000000e+02 6.295303441816744794e+01
5.960000000000000000e+02 7.722958505184662670e+01
5.970000000000000000e+02 4.750080917237047373e+01
5.980000000000000000e+02 1.879574733042876744e+02
5.990000000000000000e+02 1.618624791122225588e+02
6.000000000000000000e+02 4.398728064703036011e+01
6.010000000000000000e+02 4.675806481850131746e+01
6.020000000000000000e+02 3.807039322961757222e+01
6.030000000000000000e+02 1.860759683948544705e+02
6.040000000000000000e+02 2.111092432275460169e+02
6.050000000000000000e+02 2.613452898983605337e+02
6.060000000000000000e+02 2.494406210700953466e+02
6.070000000000000000e+02 3.078768097075321748e+02
6.080000000000000000e+02 4.994483655050827338e+02
6.090000000000000000e+02 4.804044529448351000e+02
6.100000000000000000e+02 5.001661140842158488e+02
6.110000000000000000e+02 4.544157324828846072e+02
6.120000000000000000e+02 5.391180653256010373e+02
6.130000000000000000e+02 6.836544434349692665e+02
6.140000000000000000e+02 6.849995353661131503e+02
6.150000000000000000e+02 8.659697720804780374e+02
6.160000000000000000e+02 8.893717296826378060e+02
6.170000000000000000e+02 9.784125443269086873e+02
6.180000000000000000e+02 1.122136307405100752e+03
6.190000000000000000e+02 1.198130336029869113e+03
6.200000000000000000e+02 1.197430892968264061e+03
6.210000000000000000e+02 1.211231304293715311e+03
6.220000000000000000e+02 1.417752267164489695e+03
6.230000000000000000e+02 1.528468765816220639e+03
6.240000000000000000e+02 1.543235361958100384e+03
6.250000000000000000e+02 1.616467583696331758e+03
6.260000000000000000e+02 1.812627328701785018e+03
6.270000000000000000e+02 1.848057946069282252e+03
6.280000000000000000e+02 1.923390681601329788e+03
6.290000000000000000e+02 1.962497717129820330e+03
6.300000000000000000e+02 1.993971556316118949e+03
6.310000000000000000e+02 2.010931288944200560e+03
6.320000000000000000e+02 2.004154779759435542e+03
6.330000000000000000e+02 1.997491962455921339e+03
6.340000000000000000e+02 1.966180252644679967e+03
6.350000000000000000e+02 1.947731272501036528e+03
6.360000000000000000e+02 1.885203576021572417e+03
6.370000000000000000e+02 1.838656013897531693e+03
6.380000000000000000e+02 1.726543026130234239e+03
6.390000000000000000e+02 1.683664001866832223e+03
6.400000000000000000e+02 1.735733559842356499e+03
6.410000000000000000e+02 1.620337552997296370e+03
6.420000000000000000e+02 1.447137237917444509e+03
6.430000000000000000e+02 1.419624866832606358e+03
6.440000000000000000e+02 1.288318980087115051e+03
6.450000000000000000e+02 1.090987012445549226e+03
6.460000000000000000e+02 1.179517113047086696e+03
6.470000000000000000e+02 1.224799263223395201e+03
6.480000000000000000e+02 1.102875719352830401e+03
6.490000000000000000e+02 9.833136718108276000e+02
6.500000000000000000e+02 7.905204073428760694e+02
6.510000000000000000e+02 8.948602731590941630e+02
6.520000000000000000e+02 8.119306521468581650e+02
6.530000000000000000e+02 6.010614845675150946e+02
6.540000000000000000e+02 4.848606448454678457e+02
6.550000000000000000e+02 5.157495139776025326e+02
6.560000000000000000e+02 5.101976839244961752e+02
6.570000000000000000e+02 3.267822481642813841e+02
6.580000000000000000e+02 4.418977065118204450e+02
6.590000000000000000e+02 4.262768582244334539e+02
6.600000000000000000e+02 3.088750416925939817e+02
6.610000000000000000e+02 4.298946189340522324e+02
6.620000000000000000e+02 1.667124756067205453e+02
6.630000000000000000e+02 2.553863058908921744e+02
6.640000000000000000e+02 3.469796012442970436e+02
6.650000000000000000e+02 3.880627266334782917e+02
6.660000000000000000e+02 3.923046752333543736e+02
6.670000000000000000e+02 3.099421969508400139e+02
6.680000000000000000e+02 2.440769290603597597e+02
6.690000000000000000e+02 4.756084741808453487e+01
6.700000000000000000e+02 1.443844107861434907e+02
6.710000000000000000e+02 2.069954484131936852e+02
6.720000000000000000e+02 2.223992432185786186e+02
6.730000000000000000e+02 4.265989761460276668e+02
6.740000000000000000e+02 3.501024727649877946e+02
6.750000000000000000e+02 3.456284199087509705e+02
6.760000000000000000e+02 5.693780134411915697e+02
6.770000000000000000e+02 6.286329574569616625e+02
6.780000000000000000e+02 5.889707027374529389e+02
6.790000000000000000e+02 7.642383655880499873e+02
6.800000000000000000e+02 8.991962777224604224e+02
6.810000000000000000e+02 1.097113942128189819e+03
6.820000000000000000e+02 1.349303084007467760e+03
6.830000000000000000e+02 1.464065923667289098e+03
6.840000000000000000e+02 1.651690685542411984e+03
6.850000000000000000e+02 2.139975537025521589e+03
6.860000000000000000e+02 2.436903527898781249e+03
6.870000000000000000e+02 2.603009409873468030e+03
6.880000000000000000e+02 2.726395633271101815e+03
6.890000000000000000e+02 3.110714792781560391e+03
6.900000000000000000e+02 3.664275725575596425e+03
6.910000000000000000e+02 4.157358038373767158e+03
6.920000000000000000e+02 4.642760986309875989e+03
6.930000000000000000e+02 4.983376348267986032e+03
6.940000000000000000e+02 5.411112392034835466e+03
6.950000000000000000e+02 5.840417208627116452e+03
6.960000000000000000e+02 6.188946558597800504e+03
6.970000000000000000e+02 6.519449973449488425e+03
6.980000000000000000e+02 6.919196762546661375e+03
6.990000000000000000e+02 6.868049342874921422e+03
7.000000000000000000e+02 6.926538062227756200e+03
7.010000000000000000e+02 7.023121678141847951e+03
7.020000000000000000e+02 7.052428011200993751e+03
7.030000000000000000e+02 6.840226332296187138e+03
7.040000000000000000e+02 6.241379529863146672e+03
7.050000000000000000e+02 5.954694744658796481e+03
7.060000000000000000e+02 5.396933150798621682e+03
7.070000000000000000e+02 4.822887016594086163e+03
7.080000000000000000e+02 4.147738233354102704e+03
7.090000000000000000e+02 3.426935358224452557e+03
7.100000000000000000e+02 2.987813540344329340e+03
7.110000000000000000e+02 2.750459843186064518e+03
7.120000000000000000e+02 2.375540588674554328e+03
7.130000000000000000e+02 1.918021434971992448e+03
7.140000000000000000e+02 1.567304773698400368e+03
7.150000000000000000e+02 1.360282257000620803e+03
7.160000000000000000e+02 1.183521916199952102e+03
7.170000000000000000e+02 9.647689403858056494e+02
7.180000000000000000e+02 8.083118818917190538e+02
7.190000000000000000e+02 4.963214813731766526e+02
7.200000000000000000e+02 4.573924085044681647e+02
7.210000000000000000e+02 3.981225205930967945e+02
7.220000000000000000e+02 1.407331126944509663e+02
7.230000000000000000e+02 3.212816785106880957e+02
7.240000000000000000e+02 9.229797017835127804e+01
7.250000000000000000e+02 2.412743536403199016e+02
7.260000000000000000e+02 2.207941878033649061e+02
7.270000000000000000e+02 6.303352469722150175e+01
7.280000000000000000e+02 3.816050077784690586e+01
7.290000000000000000e+02 7.368648807508841969e+01
7.300000000000000000e+02 2.034068638739130108e+02
7.310000000000000000e+02 8.846798639700898548e+01
7.320000000000000000e+02 3.530891923667294918e+01
7.330000000000000000e+02 1.397417160721763594e+02
7.340000000000000000e+02 3.332745200995742607e+02
7.350000000000000000e+02 5.123973175482275337e+02
7.360000000000000000e+02 5.320433996888576758e+02
7.370000000000000000e+02 6.503628107446648983e+02
7.380000000000000000e+02 7.934374197843267211e+02
7.390000000000000000e+02 9.334438834059290002e+02
7.400000000000000000e+02 1.047198237660721361e+03
7.410000000000000000e+02 1.195084225264467932e+03
7.420000000000000000e+02 1.501080672682015802e+03
7.430000000000000000e+02 1.566339813770220871e+03
7.440000000000000000e+02 1.814611041070323608e+03
7.450000000000000000e+02 1.877775032980708374e+03
7.460000000000000000e+02 1.865933251762755390e+03
7.470000000000000000e+02 1.946475834474179692e+03
7.480000000000000000e+02 2.028961287284791752e+03
7.490000000000000000e+02 1.958286608794849371e+03
7.500000000000000000e+02 2.156298360298697389e+03
7.510000000000000000e+02 2.141231929075068365e+03
7.520000000000000000e+02 2.059472516282929973e+03
7.530000000000000000e+02 2.096621843393483232e+03
7.540000000000000000e+02 2.078086467440885826e+03
7.550000000000000000e+02 1.795399695084008727e+03
7.560000000000000000e+02 1.714357598423563559e+03
7.570000000000000000e+02 1.797799957693903707e+03
7.580000000000000000e+02 1.678562459863094773e+03
7.590000000000000000e+02 1.622353214063471569e+03
7.600000000000000000e+02 1.510875297801735996e+03
7.610000000000000000e+02 1.441918874714786398e+03
7.620000000000000000e+02 1.378951092719349390e+03
7.630000000000000000e+02 1.287718618129012611e+03
7.640000000000000000e+02 1.022592892470433981e+03
7.650000000000000000e+02 9.061944341422943126e+02
7.660000000000000000e+02 7.850751465878555564e+02
7.670000000000000000e+02 5.501634559220050278e+02
7.680000000000000000e+02 5.174550887367770429e+02
7.690000000000000000e+02 5.621179096453014381e+02
7.700000000000000000e+02 5.321035835096464552e+02
7.710000000000000000e+02 2.353547891723762575e+02
7.720000000000000000e+02 1.358577706907292679e+02
7.730000000000000000e+02 2.642107365276922906e+02
7.740000000000000000e+02 2.604343755444922408e+02
7.750000000000000000e+02 3.572471582659564149e+01
7.760000000000000000e+02 2.534679229827834490e+02
7.770000000000000000e+02 8.786513500269396104e+01
7.780000000000000000e+02 1.169204444804130461e+01
7.790000000000000000e+02 3.196571179838155530e+01
7.800000000000000000e+02 3.702482394027497747e+01
7.810000000000000000e+02 6.049606943580004526e+01
7.820000000000000000e+02 1.101354633105171672e+02
7.830000000000000000e+02 1.104093109249265439e+02
7.840000000000000000e+02 5.867644336859683563e+01
7.850000000000000000e+02 1.318069994399502320e+02
7.860000000000000000e+02 1.683825970551347950e+01
7.870000000000000000e+02 1.861687386434353471e+02
7.880000000000000000e+02 1.775663550176309116e+02
7.890000000000000000e+02 1.868639603816769323e+01
7.900000000000000000e+02 6.256595698610234990e+01
7.910000000000000000e+02 8.064934996888565522e+00
7.920000000000000000e+02 1.321763816552610251e+02
7.930000000000000000e+02 1.577501046712301900e+02
7.940000000000000000e+02 4.784041877411479504e+01
7.950000000000000000e+02 1.132265718730554767e+02
7.960000000000000000e+02 9.062385563161095092e+01
7.970000000000000000e+02 5.577889688446289540e+01
7.980000000000000000e+02 3.927867961211356373e+01
7.990000000000000000e+02 1.279353974486614902e+02
8.000000000000000000e+02 1.371132545115124515e+02
8.010000000000000000e+02 1.016530719352832222e+02
8.020000000000000000e+02 8.616260189172341200e+01
8.030000000000000000e+02 1.513850637080050205e+02
8.040000000000000000e+02 6.139557924497002972e+01
8.050000000000000000e+02 2.316031341630414317e+02
8.060000000000000000e+02 2.039809557216998428e+02
8.070000000000000000e+02 4.621589701514052706e+01
8.080000000000000000e+02 2.465432803982557743e+02
8.090000000000000000e+02 2.176069695562023014e+02
8.100000000000000000e+02 7.113413130056196110e+01
8.110000000000000000e+02 4.788773289773825326e+01
8.120000000000000000e+02 1.224369152633747291e+02
8.130000000000000000e+02 1.718479569383942476e+02
8.140000000000000000e+02 2.218256414436812065e+02
8.150000000000000000e+02 3.339965906658371750e+02
8.160000000000000000e+02 2.946245161377314048e+02
8.170000000000000000e+02 2.460667608172576593e+02
8.180000000000000000e+02 3.450260012030706207e+02
8.190000000000000000e+02 1.628564818419376934e+02
8.200000000000000000e+02 1.161661869944033185e+02
8.210000000000000000e+02 3.660894375025912950e+02
8.220000000000000000e+02 3.471817074880703444e+02
8.230000000000000000e+02 2.646651931549457117e+02
8.240000000000000000e+02 2.969958370877401990e+02
8.250000000000000000e+02 2.127225561501811342e+02
8.260000000000000000e+02 1.912079038582359658e+01
8.270000000000000000e+02 3.290243337067062157e+01
8.280000000000000000e+02 2.443569671437388138e+02
8.290000000000000000e+02 3.270905749274181744e+02
8.300000000000000000e+02 2.684320476457161817e+02
8.310000000000000000e+02 3.167014803982573881e+02
8.320000000000000000e+02 2.541523939858988399e+02
8.330000000000000000e+02 2.569846317361547676e+02
8.340000000000000000e+02 3.285252307197679329e+02
8.350000000000000000e+02 3.759177069680636691e+02
8.360000000000000000e+02 4.201941086704019881e+02
8.370000000000000000e+02 4.555909434971990777e+02
8.380000000000000000e+02 3.120622027789373192e+02
8.390000000000000000e+02 1.992408246421941556e+02
8.400000000000000000e+02 7.740347705869370998e+01
8.410000000000000000e+02 1.019303081190326310e+02
8.420000000000000000e+02 2.172091222775382278e+02
8.430000000000000000e+02 1.873011333333310517e+02
8.440000000000000000e+02 2.548773784277106529e+02
8.450000000000000000e+02 3.167154883841512287e+02
8.460000000000000000e+02 3.861327166770363988e+02
8.470000000000000000e+02 4.528374974486620772e+02
8.480000000000000000e+02 3.327940262186273230e+02
8.490000000000000000e+02 1.741758843600911746e+02
8.500000000000000000e+02 1.525490933001415499e+02
8.510000000000000000e+02 4.015906173615552177e+01
8.520000000000000000e+02 1.454231929724167003e+02
8.530000000000000000e+02 1.790208024891085472e+02
8.540000000000000000e+02 1.162372513586357456e+02
8.550000000000000000e+02 1.477970797594392991e+02
8.560000000000000000e+02 1.772771798382140389e+02
8.570000000000000000e+02 5.337632291764638381e+01
8.580000000000000000e+02 4.313649541061939630e+01
8.590000000000000000e+02 3.451744012570220121e+01
8.600000000000000000e+02 1.391474273802074606e+02
8.610000000000000000e+02 1.248502039444239102e+02
8.620000000000000000e+02 4.044969328355064420e+01
8.630000000000000000e+02 6.494018357187360380e+01
8.640000000000000000e+02 2.499430669328124921e+01
8.650000000000000000e+02 8.278402716241519954e+01
8.660000000000000000e+02 1.220843549056216375e+02
8.670000000000000000e+02 1.295619129406887851e+02
8.680000000000000000e+02 2.013019561916649991e+02
8.690000000000000000e+02 1.972241817050381485e+02
8.700000000000000000e+02 1.004810024268764437e+02
8.710000000000000000e+02 1.472116935988663755e+01
8.720000000000000000e+02 4.354050865795348813e+01
8.730000000000000000e+02 1.257229482887340311e+02
8.740000000000000000e+02 1.475254911014311574e+02
8.750000000000000000e+02 1.582815426674970638e+02
8.760000000000000000e+02 2.268165276706065185e+02
8.770000000000000000e+02 2.694708751296412288e+02
8.780000000000000000e+02 3.138193148102036503e+02
8.790000000000000000e+02 3.782424805849407790e+02
8.800000000000000000e+02 2.840498833851862628e+02
8.810000000000000000e+02 1.728902849201382139e+02
8.820000000000000000e+02 1.608482489423490165e+02
8.830000000000000000e+02 2.321797526861686833e+02
8.840000000000000000e+02 3.103716235220928183e+02
8.850000000000000000e+02 3.679251273537968245e+02
8.860000000000000000e+02 4.187475506326470054e+02
8.870000000000000000e+02 4.321722972412343893e+02
8.880000000000000000e+02 3.708364582745742268e+02
8.890000000000000000e+02 4.129429744866200735e+02
8.900000000000000000e+02 4.447035021987135792e+02
8.910000000000000000e+02 4.808065340315220624e+02
8.920000000000000000e+02 4.981621346193735462e+02
8.930000000000000000e+02 5.268561810205353595e+02
8.940000000000000000e+02 6.423660593944456423e+02
8.950000000000000000e+02 8.289586273179872933e+02
8.960000000000000000e+02 8.054685048952512716e+02
8.970000000000000000e+02 9.177574236050658101e+02
8.980000000000000000e+02 1.033377418170505962e+03
8.990000000000000000e+02 1.081196707944410264e+03
9.000000000000000000e+02 1.171236688031534186e+03
9.010000000000000000e+02 1.366739198091687285e+03
9.020000000000000000e+02 1.524962980709396788e+03
9.030000000000000000e+02 1.494071019912880274e+03
9.040000000000000000e+02 1.635544451358642164e+03
9.050000000000000000e+02 1.778609021364862883e+03
9.060000000000000000e+02 1.795123971790085079e+03
9.070000000000000000e+02 1.808253347230864847e+03
9.080000000000000000e+02 1.917713195187719748e+03
9.090000000000000000e+02 1.963771555278982760e+03
9.100000000000000000e+02 1.804903330429374364e+03
9.110000000000000000e+02 2.124233512235586659e+03
9.120000000000000000e+02 2.024456362787800799e+03
9.130000000000000000e+02 1.882581220286247571e+03
9.140000000000000000e+02 2.005752819369557301e+03
9.150000000000000000e+02 2.011734536610658779e+03
9.160000000000000000e+02 1.839799102675793392e+03
9.170000000000000000e+02 1.805856309415179794e+03
9.180000000000000000e+02 1.705656841111802123e+03
9.190000000000000000e+02 1.736299647376062921e+03
9.200000000000000000e+02 1.557252369348816046e+03
9.210000000000000000e+02 1.364866212818916665e+03
9.220000000000000000e+02 1.361067212611490959e+03
9.230000000000000000e+02 1.282753527691347927e+03
9.240000000000000000e+02 1.071373300145198073e+03
9.250000000000000000e+02 1.043520378344741857e+03
9.260000000000000000e+02 1.001933356316116260e+03
9.270000000000000000e+02 8.168643234598636127e+02
9.280000000000000000e+02 8.110330526031938234e+02
9.290000000000000000e+02 7.814039823688030992e+02
9.300000000000000000e+02 7.388272298070941133e+02
9.310000000000000000e+02 6.768518929890091158e+02
9.320000000000000000e+02 6.097234018046046913e+02
9.330000000000000000e+02 6.419098770379589496e+02
9.340000000000000000e+02 5.543195970130705064e+02
9.350000000000000000e+02 4.014230781580594680e+02
9.360000000000000000e+02 5.600435284380807843e+02
9.370000000000000000e+02 6.425032021982572132e+02
9.380000000000000000e+02 7.549089270898165296e+02
9.390000000000000000e+02 8.468299743621651032e+02
9.400000000000000000e+02 7.533784647034457294e+02
9.410000000000000000e+02 6.691375142916400591e+02
9.420000000000000000e+02 7.590528259282331192e+02
9.430000000000000000e+02 8.201323184155945683e+02
9.440000000000000000e+02 7.915627632856260334e+02
9.450000000000000000e+02 8.229746775357787101e+02
9.460000000000000000e+02 8.845671793861457672e+02
9.470000000000000000e+02 9.647704465670998388e+02
9.480000000000000000e+02 1.077627184816424688e+03
9.490000000000000000e+02 1.146702347988385782e+03
9.500000000000000000e+02 1.083160199543661975e+03
9.510000000000000000e+02 1.156270502800247414e+03
9.520000000000000000e+02 1.209695642605268631e+03
9.530000000000000000e+02 1.182972143123833348e+03
9.540000000000000000e+02 1.272732662310723526e+03
9.550000000000000000e+02 1.308924801078609789e+03
9.560000000000000000e+02 1.254267769757316273e+03
9.570000000000000000e+02 1.360799221530800878e+03
9.580000000000000000e+02 1.081989525202249297e+03
9.590000000000000000e+02 8.326054791122242023e+02
9.600000000000000000e+02 9.271281990458470545e+02
9.610000000000000000e+02 6.471419889649607740e+02
9.620000000000000000e+02 6.065983349719870148e+02
9.630000000000000000e+02 6.994939055578668103e+02
9.640000000000000000e+02 5.623184603194392821e+02
9.650000000000000000e+02 4.611416632856257820e+02
9.660000000000000000e+02 4.123304635213658571e+02
9.670000000000000000e+02 1.893787450528940894e+02
9.680000000000000000e+02 3.338364606098310219e+02
9.690000000000000000e+02 2.872212100788049156e+02
9.700000000000000000e+02 2.155258776809792209e+02
9.710000000000000000e+02 2.855190481020552511e+02
9.720000000000000000e+02 2.350844194732396772e+02
9.730000000000000000e+02 4.507343881144961273e+01
9.740000000000000000e+02 6.697795804812183462e+01
9.750000000000000000e+02 7.240580161343208943e+01
9.760000000000000000e+02 8.825407402613664942e+01
9.770000000000000000e+02 1.215984822236052878e+02
9.780000000000000000e+02 7.801528293299996619e+01
9.790000000000000000e+02 4.390325598423052611e+01
9.800000000000000000e+02 1.056277425388967828e+02
9.810000000000000000e+02 1.452983709147508051e+01
9.820000000000000000e+02 5.691277637212038343e+01
9.830000000000000000e+02 5.772608496162653324e+01
9.840000000000000000e+02 9.268849796307935662e+01
9.850000000000000000e+02 5.658346856876137565e+01
9.860000000000000000e+02 1.663674191246633995e+02
9.870000000000000000e+02 1.611963644264714048e+02
9.880000000000000000e+02 4.477902841319436078e+01
9.890000000000000000e+02 1.120804731798348541e+02
9.900000000000000000e+02 1.881855072806274336e+02
9.910000000000000000e+02 1.733051924497004563e+02
9.920000000000000000e+02 6.809566621734865066e+01
9.930000000000000000e+02 7.096612768720370923e+01
9.940000000000000000e+02 9.773193973241868093e+01
9.950000000000000000e+02 1.689400019908735260e+02
9.960000000000000000e+02 1.387306322962028560e+02
9.970000000000000000e+02 9.521212764986793786e+01
9.980000000000000000e+02 5.022742462048884704e+01
9.990000000000000000e+02 1.550484871810827485e+02
1.000000000000000000e+03 4.382377081725766743e+01
1.001000000000000000e+03 7.794064278008106328e+01
1.002000000000000000e+03 1.550915672199181472e+02
1.003000000000000000e+03 2.329692128630693446e+02
1.004000000000000000e+03 2.851684844398334917e+02
1.005000000000000000e+03 1.471459250000022223e+02
1.006000000000000000e+03 2.765731242236896037e+01
1.007000000000000000e+03 2.719377593361045911e+02
1.008000000000000000e+03 4.135517419087140070e+02
1.009000000000000000e+03 3.314118149377568443e+02
1.010000000000000000e+03 2.850606510373447122e+02
1.011000000000000000e+03 2.903437340248960936e+02
1.012000000000000000e+03 3.829329740663909547e+02
1.013000000000000000e+03 4.601373251037338150e+02
1.014000000000000000e+03 4.158481325726126556e+02
1.015000000000000000e+03 3.340600522821582103e+02
1.016000000000000000e+03 3.393173331950206943e+02
1.017000000000000000e+03 3.050680037344399125e+02
1.018000000000000000e+03 2.786618120331905288e+02
1.019000000000000000e+03 1.407647730290441643e+02
1.020000000000000000e+03 1.494197161825690330e+02
1.021000000000000000e+03 3.557415792531190846e+02
1.022000000000000000e+03 4.165241526970988275e+02
1.023000000000000000e+03 2.926723954356839386e+02
1.024000000000000000e+03 2.382636597510372951e+02
1.025000000000000000e+03 2.632684165975143742e+02
1.026000000000000000e+03 2.667821232365178616e+02
1.027000000000000000e+03 4.756807904762145256e+01
1.028000000000000000e+03 6.109114252075332985e+01
1.029000000000000000e+03 1.210894786307071058e+02
1.030000000000000000e+03 2.290754141078745363e+02
1.031000000000000000e+03 2.429271008298724155e+02
1.032000000000000000e+03 6.431532278008356229e+01
1.033000000000000000e+03 1.676946091286237106e+02
1.034000000000000000e+03 1.624606078838218082e+02
1.035000000000000000e+03 2.499044003727266983e+01
1.036000000000000000e+03 8.887237636929481255e+01
1.037000000000000000e+03 8.380771973029121114e+01
1.038000000000000000e+03 7.950377302904541921e+01
1.039000000000000000e+03 5.767531273859849250e+01
1.040000000000000000e+03 5.570195730290905090e+01
1.041000000000000000e+03 2.029243037344386948e+02
1.042000000000000000e+03 1.518308925311119424e+02
1.043000000000000000e+03 4.095367858921571269e+01
1.044000000000000000e+03 4.012500238588935986e+01
1.045000000000000000e+03 1.376776825726195170e+02
1.046000000000000000e+03 3.373930371369209524e+02
1.047000000000000000e+03 7.998007434783229996e+01
1.048000000000000000e+03 2.094826489626581747e+02
1.049000000000000000e+03 3.512586178423083538e+02
1.050000000000000000e+03 2.467154817427399678e+02
1.051000000000000000e+03 2.269000024896322429e+02
1.052000000000000000e+03 9.166411773858644096e+01
1.053000000000000000e+03 7.217714294605558223e+01
1.054000000000000000e+03 1.745409751037541213e+01
1.055000000000000000e+03 8.233094278008269384e+01
1.056000000000000000e+03 2.753308173913223413e+02
1.057000000000000000e+03 5.795403315352428990e+02
1.058000000000000000e+03 2.652335647303042947e+02
1.059000000000000000e+03 4.611816082989187038e+01
1.060000000000000000e+03 3.943100894190944246e+02
1.061000000000000000e+03 3.626526410788515022e+02
1.062000000000000000e+03 1.393225539419088932e+02
1.063000000000000000e+03 2.135766396265567835e+02
1.064000000000000000e+03 1.391275913043516255e+02
1.065000000000000000e+03 2.928692464730273741e+02
1.066000000000000000e+03 2.185268987551759778e+02
1.067000000000000000e+03 2.127527838174207204e+02
1.068000000000000000e+03 1.995268813278083258e+02
1.069000000000000000e+03 1.066636410788369744e+02
1.070000000000000000e+03 1.877800630705519040e+02
1.071000000000000000e+03 3.734534701244921280e+02
1.072000000000000000e+03 2.248701550724654510e+02
1.073000000000000000e+03 1.789002954356929820e+02
1.074000000000000000e+03 3.516645999999881838e+02
1.075000000000000000e+03 3.196138975103766029e+02
1.076000000000000000e+03 3.199327236024865329e+02
1.077000000000000000e+03 3.684379074688795299e+02
1.078000000000000000e+03 5.404629348547513246e+02
1.079000000000000000e+03 6.619945269709548938e+02
1.080000000000000000e+03 4.917359062240595335e+02
1.081000000000000000e+03 4.396835900414969274e+02
1.082000000000000000e+03 4.202311734439834936e+02
1.083000000000000000e+03 4.600780132780097347e+02
1.084000000000000000e+03 4.078461734439778184e+02
1.085000000000000000e+03 6.169816599585005861e+02
1.086000000000000000e+03 5.750241091286281971e+02
1.087000000000000000e+03 3.989559838174214974e+02
1.088000000000000000e+03 3.788475209543497613e+02
1.089000000000000000e+03 4.766526352697080142e+02
1.090000000000000000e+03 6.079041477178484456e+02
1.091000000000000000e+03 6.908330008298753455e+02
1.092000000000000000e+03 6.560597414937813028e+02
1.093000000000000000e+03 5.364662459627318185e+02
1.094000000000000000e+03 7.941590257261705119e+02
1.095000000000000000e+03 9.221932441908709279e+02
1.096000000000000000e+03 8.448356767634877542e+02
1.097000000000000000e+03 8.092384091097312648e+02
1.098000000000000000e+03 8.961219863070397196e+02
1.099000000000000000e+03 9.799535987551907965e+02
1.100000000000000000e+03 8.909138406638987817e+02
1.101000000000000000e+03 8.808062190871481789e+02
1.102000000000000000e+03 1.147381201244808381e+03
1.103000000000000000e+03 1.086662844398340894e+03
1.104000000000000000e+03 1.006417900207473735e+03
1.105000000000000000e+03 1.424727227743273488e+03
1.106000000000000000e+03 1.245005518672218614e+03
1.107000000000000000e+03 1.065763789626564403e+03
1.108000000000000000e+03 1.237522767634854517e+03
1.109000000000000000e+03 1.227685614107880838e+03
1.110000000000000000e+03 1.256471421161825219e+03
1.111000000000000000e+03 1.113438489626548972e+03
1.112000000000000000e+03 1.231754367219909682e+03
1.113000000000000000e+03 1.262423000000003185e+03
1.114000000000000000e+03 1.088855829875517884e+03
1.115000000000000000e+03 1.267663485477190306e+03
1.116000000000000000e+03 1.399829286307057828e+03
1.117000000000000000e+03 1.146553132505170879e+03
1.118000000000000000e+03 9.167033168049841834e+02
1.119000000000000000e+03 1.005998837966794781e+03
1.120000000000000000e+03 1.039640711618259274e+03
1.121000000000000000e+03 8.821611180497883424e+02
1.122000000000000000e+03 8.806554904761891294e+02
1.123000000000000000e+03 8.670021145228218984e+02
1.124000000000000000e+03 9.096697390041503013e+02
1.125000000000000000e+03 9.481628219916958642e+02
1.126000000000000000e+03 8.081199307054072278e+02
1.127000000000000000e+03 6.622277354771787259e+02
1.128000000000000000e+03 6.419946836099608163e+02
1.129000000000000000e+03 5.981909697095364891e+02
1.130000000000000000e+03 4.738334190871375995e+02
1.131000000000000000e+03 5.236621103734489679e+02
1.132000000000000000e+03 6.316712572614088685e+02
1.133000000000000000e+03 4.309816892116330109e+02
1.134000000000000000e+03 3.257815734989646330e+02
1.135000000000000000e+03 2.506642709543518492e+02
1.136000000000000000e+03 2.410294228215755936e+02
1.137000000000000000e+03 2.805029836099562317e+02
1.138000000000000000e+03 2.016017321576728705e+02
1.139000000000000000e+03 1.444221991701353716e+02
1.140000000000000000e+03 2.184208468879684233e+02
1.141000000000000000e+03 1.912776502074688665e+02
1.142000000000000000e+03 1.904528265010366113e+02
1.143000000000000000e+03 2.053305172199185336e+02
1.144000000000000000e+03 1.743559244813281168e+02
1.145000000000000000e+03 1.949900066390056281e+02
1.146000000000000000e+03 2.559876136645955000e+02
1.147000000000000000e+03 1.565232721991784217e+02
1.148000000000000000e+03 7.330672738589193216e+01
1.149000000000000000e+03 2.753285979253390678e+02
1.150000000000000000e+03 3.959217796680568995e+02
1.151000000000000000e+03 1.216724923395466647e+02
1.152000000000000000e+03 6.597679406638606281e+01
1.153000000000000000e+03 1.248142577179599044e+01
1.154000000000000000e+03 1.263852220124522745e+02
1.155000000000000000e+03 1.652288705394477120e+01
1.156000000000000000e+03 5.005215730290812814e+01
1.157000000000000000e+03 1.301141676348486271e+02
1.158000000000000000e+03 1.140543025726154980e+02
1.159000000000000000e+03 2.391798468879356676e+01
1.160000000000000000e+03 8.526893252074314944e+01
1.161000000000000000e+03 1.657945456431573632e+02
1.162000000000000000e+03 1.571020838589251696e+02
1.163000000000000000e+03 3.389238826087016037e+02
1.164000000000000000e+03 1.768639128630808273e+02
1.165000000000000000e+03 9.428906000000000631e+01
1.166000000000000000e+03 4.386498639005213107e+01
1.167000000000000000e+03 2.547234906832256911e+02
1.168000000000000000e+03 1.112752852697132795e+02
1.169000000000000000e+03 2.236164118257345592e+02
1.170000000000000000e+03 2.058101595435646800e+02
1.171000000000000000e+03 7.119188368529928823e+01
1.172000000000000000e+03 5.397072493775791457e+01
1.173000000000000000e+03 1.260393430705632909e+02
1.174000000000000000e+03 3.826156796680381831e+02
1.175000000000000000e+03 3.973062685300203043e+02
1.176000000000000000e+03 4.031984018672160346e+02
1.177000000000000000e+03 3.689404172201929555e+01
1.178000000000000000e+03 2.994260576763882398e+01
1.179000000000000000e+03 1.581336004140796092e+02
1.180000000000000000e+03 2.238007141078833513e+02
1.181000000000000000e+03 2.330087767634852867e+02
1.182000000000000000e+03 1.815206900414954418e+02
1.183000000000000000e+03 1.366392668049812187e+02
1.184000000000000000e+03 1.590365510373453333e+02
1.185000000000000000e+03 1.521544549792530745e+02
1.186000000000000000e+03 1.856839948132797815e+02
1.187000000000000000e+03 2.703916356846506233e+02
1.188000000000000000e+03 2.345186759336130535e+02
1.189000000000000000e+03 2.165411543568464765e+02
1.190000000000000000e+03 3.265989850622480049e+02
1.191000000000000000e+03 3.162701933610018727e+02
1.192000000000000000e+03 3.079284867219911916e+02
1.193000000000000000e+03 3.304489912863078871e+02
1.194000000000000000e+03 3.582721414937776103e+02
1.195000000000000000e+03 3.562811203319541846e+02
1.196000000000000000e+03 4.008223805383017861e+02
1.197000000000000000e+03 4.955199684647179197e+02
1.198000000000000000e+03 2.767296257261607479e+02
1.199000000000000000e+03 1.474424734439829194e+02
1.200000000000000000e+03 2.848229590062130114e+02
1.201000000000000000e+03 1.296055676763573956e+02
1.202000000000000000e+03 3.488555558920685229e+01
1.203000000000000000e+03 8.121855763693061192e+01
1.204000000000000000e+03 3.084916910973308859e+02
1.205000000000000000e+03 2.104601033195220339e+02
1.206000000000000000e+03 2.677139522821614648e+01
1.207000000000000000e+03 3.100373045643568659e+01
1.208000000000000000e+03 5.379278428571582538e+01
1.209000000000000000e+03 2.073679190871275750e+02
1.210000000000000000e+03 3.920016948132799257e+02
1.211000000000000000e+03 3.959266690871243668e+02
1.212000000000000000e+03 2.191404311203366433e+02
1.213000000000000000e+03 3.586912908713691763e+02
1.214000000000000000e+03 1.716953917012290844e+02
1.215000000000000000e+03 1.724325867219862971e+02
1.216000000000000000e+03 2.323985037344389184e+02
1.217000000000000000e+03 2.983887354771823084e+02
1.218000000000000000e+03 1.752583794605567391e+02
1.219000000000000000e+03 9.247484921160521765e+01
1.220000000000000000e+03 1.575927774896290146e+02
1.221000000000000000e+03 6.254294639006234036e+01
1.222000000000000000e+03 2.767369734439812987e+02
1.223000000000000000e+03 2.185892713693005760e+02
1.224000000000000000e+03 4.665138589211341014e+01
1.225000000000000000e+03 2.366846345755685022e+01
1.226000000000000000e+03 5.776374468879415502e+01
1.227000000000000000e+03 1.136526841286309377e+02
1.228000000000000000e+03 8.661227064314965673e+01
1.229000000000000000e+03 1.071974681573477142e+02
1.230000000000000000e+03 7.216260132780280401e+01
1.231000000000000000e+03 1.171912286307122173e+02
1.232000000000000000e+03 2.265693680497949458e+02
1.233000000000000000e+03 1.779542678423241853e+02
1.234000000000000000e+03 1.624257097510369476e+02
1.235000000000000000e+03 1.224375560788299424e+02
1.236000000000000000e+03 4.406575607883708301e+01
1.237000000000000000e+03 8.920498931676895893e+01
1.238000000000000000e+03 1.452710763485463588e+02
1.239000000000000000e+03 4.438530605809047813e+01
1.240000000000000000e+03 1.205653385892152230e+01
1.241000000000000000e+03 1.157952094202945545e+02
1.242000000000000000e+03 1.416634267634768491e+02
1.243000000000000000e+03 4.010227674274625542e+01
1.244000000000000000e+03 7.450040375518517521e+01
1.245000000000000000e+03 3.844837510372640565e+01
1.246000000000000000e+03 1.807203709543457535e+02
1.247000000000000000e+03 2.097842282157740783e+02
1.248000000000000000e+03 7.047004273859239731e+01
1.249000000000000000e+03 1.897033394190891329e+02
1.250000000000000000e+03 1.849933470954350128e+02
1.251000000000000000e+03 2.009826504149375239e+02
1.252000000000000000e+03 1.052888816390007776e+02
1.253000000000000000e+03 2.615703699170132950e+02
1.254000000000000000e+03 2.236292141078872646e+02
1.255000000000000000e+03 1.386746477178411965e+02
1.256000000000000000e+03 4.184260955598730902e+01
1.257000000000000000e+03 1.459929124481263329e+02
1.258000000000000000e+03 9.409900033610355763e+01
1.259000000000000000e+03 1.029929037344393521e+02
1.260000000000000000e+03 3.367505412863129663e+02
1.261000000000000000e+03 2.646644535269722951e+02
1.262000000000000000e+03 1.847593161825616050e+02
1.263000000000000000e+03 7.059554821578126393e+01
1.264000000000000000e+03 3.827482253111982118e+02
1.265000000000000000e+03 2.644684580912846172e+02
1.266000000000000000e+03 3.060719855072538849e+02
1.267000000000000000e+03 2.988032145228265790e+02
1.268000000000000000e+03 2.556689043568467241e+02
1.269000000000000000e+03 2.692443091286326080e+02
1.270000000000000000e+03 3.217530590062081046e+02
1.271000000000000000e+03 3.804983609958485999e+02
1.272000000000000000e+03 4.518394311203342681e+02
1.273000000000000000e+03 4.120127116182379154e+02
1.274000000000000000e+03 2.477374695652150081e+02
1.275000000000000000e+03 3.126613997925314834e+02
1.276000000000000000e+03 4.211122659751036963e+02
1.277000000000000000e+03 3.709868883817560459e+02
1.278000000000000000e+03 2.407621074688819931e+02
1.279000000000000000e+03 3.257797879668095220e+02
1.280000000000000000e+03 3.596994759336101311e+02
1.281000000000000000e+03 3.852585825726119424e+02
1.282000000000000000e+03 3.720511431535272209e+02
1.283000000000000000e+03 3.130915968879616003e+02
1.284000000000000000e+03 3.475000933609867388e+02
1.285000000000000000e+03 3.722192163900427317e+02
1.286000000000000000e+03 2.762729802904529492e+02
1.287000000000000000e+03 1.528561571784365754e+02
1.288000000000000000e+03 1.056312209543489615e+02
1.289000000000000000e+03 2.118601580912855127e+02
1.290000000000000000e+03 1.417968385892111485e+02
1.291000000000000000e+03 1.581336807053930613e+02
1.292000000000000000e+03 1.771219937759330207e+02
1.293000000000000000e+03 2.420672979253125732e+02
1.294000000000000000e+03 1.957799568464742208e+02
1.295000000000000000e+03 2.115680405797081676e+02
1.296000000000000000e+03 1.799832423236497050e+02
1.297000000000000000e+03 1.019677762655533400e+02
1.298000000000000000e+03 6.897085460580960614e+01
1.299000000000000000e+03 1.361013977225668725e+01
1.300000000000000000e+03 0.000000000000000000e+00
1.301000000000000000e+03 0.000000000000000000e+00
1.302000000000000000e+03 0.000000000000000000e+00
1.303000000000000000e+03 0.000000000000000000e+00
1.304000000000000000e+03 0.000000000000000000e+00
1.305000000000000000e+03 0.000000000000000000e+00
1.306000000000000000e+03 0.000000000000000000e+00
1.307000000000000000e+03 0.000000000000000000e+00
1.308000000000000000e+03 0.000000000000000000e+00
1.309000000000000000e+03 0.000000000000000000e+00
1.310000000000000000e+03 0.000000000000000000e+00
1.311000000000000000e+03 0.000000000000000000e+00
1.312000000000000000e+03 0.000000000000000000e+00
1.313000000000000000e+03 0.000000000000000000e+00
1.314000000000000000e+03 0.000000000000000000e+00
1.315000000000000000e+03 0.000000000000000000e+00
1.316000000000000000e+03 0.000000000000000000e+00
1.317000000000000000e+03 0.000000000000000000e+00
1.318000000000000000e+03 0.000000000000000000e+00
1.319000000000000000e+03 0.000000000000000000e+00
1.320000000000000000e+03 0.000000000000000000e+00
1.321000000000000000e+03 0.000000000000000000e+00
1.322000000000000000e+03 0.000000000000000000e+00
1.323000000000000000e+03 0.000000000000000000e+00
1.324000000000000000e+03 0.000000000000000000e+00
1.325000000000000000e+03 0.000000000000000000e+00
1.326000000000000000e+03 0.000000000000000000e+00
1.327000000000000000e+03 0.000000000000000000e+00
1.328000000000000000e+03 0.000000000000000000e+00
1.329000000000000000e+03 0.000000000000000000e+00
1.330000000000000000e+03 0.000000000000000000e+00
1.331000000000000000e+03 0.000000000000000000e+00
1.332000000000000000e+03 0.000000000000000000e+00
1.333000000000000000e+03 0.000000000000000000e+00
1.334000000000000000e+03 0.000000000000000000e+00
1.335000000000000000e+03 0.000000000000000000e+00
1.336000000000000000e+03 0.000000000000000000e+00
1.337000000000000000e+03 0.000000000000000000e+00
1.338000000000000000e+03 0.000000000000000000e+00
1.339000000000000000e+03 0.000000000000000000e+00
1.340000000000000000e+03 0.000000000000000000e+00
1.341000000000000000e+03 0.000000000000000000e+00
1.342000000000000000e+03 0.000000000000000000e+00
1.343000000000000000e+03 0.000000000000000000e+00
1.344000000000000000e+03 0.000000000000000000e+00
1.345000000000000000e+03 0.000000000000000000e+00
1.346000000000000000e+03 0.000000000000000000e+00
1.347000000000000000e+03 0.000000000000000000e+00
1.348000000000000000e+03 0.000000000000000000e+00
1.349000000000000000e+03 0.000000000000000000e+00
1.350000000000000000e+03 0.000000000000000000e+00
1.351000000000000000e+03 0.000000000000000000e+00
1.352000000000000000e+03 0.000000000000000000e+00
1.353000000000000000e+03 0.000000000000000000e+00
1.354000000000000000e+03 0.000000000000000000e+00
1.355000000000000000e+03 0.000000000000000000e+00
1.356000000000000000e+03 0.000000000000000000e+00
1.357000000000000000e+03 0.000000000000000000e+00
1.358000000000000000e+03 0.000000000000000000e+00
1.359000000000000000e+03 0.000000000000000000e+00
1.360000000000000000e+03 0.000000000000000000e+00
1.361000000000000000e+03 0.000000000000000000e+00
1.362000000000000000e+03 0.000000000000000000e+00
1.363000000000000000e+03 0.000000000000000000e+00
1.364000000000000000e+03 0.000000000000000000e+00
1.365000000000000000e+03 0.000000000000000000e+00
1.366000000000000000e+03 0.000000000000000000e+00
1.367000000000000000e+03 0.000000000000000000e+00
1.368000000000000000e+03 0.000000000000000000e+00
1.369000000000000000e+03 0.000000000000000000e+00
1.370000000000000000e+03 0.000000000000000000e+00
1.371000000000000000e+03 0.000000000000000000e+00
1.372000000000000000e+03 0.000000000000000000e+00
1.373000000000000000e+03 0.000000000000000000e+00
1.374000000000000000e+03 0.000000000000000000e+00
1.375000000000000000e+03 0.000000000000000000e+00
1.376000000000000000e+03 0.000000000000000000e+00
1.377000000000000000e+03 0.000000000000000000e+00
1.378000000000000000e+03 0.000000000000000000e+00
1.379000000000000000e+03 0.000000000000000000e+00
1.380000000000000000e+03 0.000000000000000000e+00
1.381000000000000000e+03 0.000000000000000000e+00
1.382000000000000000e+03 0.000000000000000000e+00
1.383000000000000000e+03 0.000000000000000000e+00
1.384000000000000000e+03 0.000000000000000000e+00
1.385000000000000000e+03 0.000000000000000000e+00
1.386000000000000000e+03 0.000000000000000000e+00
1.387000000000000000e+03 0.000000000000000000e+00
1.388000000000000000e+03 0.000000000000000000e+00
1.389000000000000000e+03 0.000000000000000000e+00
1.390000000000000000e+03 0.000000000000000000e+00
1.391000000000000000e+03 0.000000000000000000e+00
1.392000000000000000e+03 0.000000000000000000e+00
1.393000000000000000e+03 0.000000000000000000e+00
1.394000000000000000e+03 0.000000000000000000e+00
1.395000000000000000e+03 0.000000000000000000e+00
1.396000000000000000e+03 0.000000000000000000e+00
1.397000000000000000e+03 0.000000000000000000e+00
1.398000000000000000e+03 0.000000000000000000e+00
1.399000000000000000e+03 0.000000000000000000e+00
1.400000000000000000e+03 0.000000000000000000e+00
1.401000000000000000e+03 0.000000000000000000e+00
1.402000000000000000e+03 0.000000000000000000e+00
1.403000000000000000e+03 0.000000000000000000e+00
1.404000000000000000e+03 0.000000000000000000e+00
1.405000000000000000e+03 0.000000000000000000e+00
1.406000000000000000e+03 0.000000000000000000e+00
1.407000000000000000e+03 0.000000000000000000e+00
1.408000000000000000e+03 0.000000000000000000e+00
1.409000000000000000e+03 0.000000000000000000e+00
1.410000000000000000e+03 0.000000000000000000e+00
1.411000000000000000e+03 0.000000000000000000e+00
1.412000000000000000e+03 0.000000000000000000e+00
1.413000000000000000e+03 0.000000000000000000e+00
1.414000000000000000e+03 0.000000000000000000e+00
1.415000000000000000e+03 0.000000000000000000e+00
1.416000000000000000e+03 0.000000000000000000e+00
1.417000000000000000e+03 0.000000000000000000e+00
1.418000000000000000e+03 0.000000000000000000e+00
1.419000000000000000e+03 0.000000000000000000e+00
1.420000000000000000e+03 0.000000000000000000e+00
1.421000000000000000e+03 0.000000000000000000e+00
1.422000000000000000e+03 0.000000000000000000e+00
1.423000000000000000e+03 0.000000000000000000e+00
1.424000000000000000e+03 0.000000000000000000e+00
1.425000000000000000e+03 0.000000000000000000e+00
1.426000000000000000e+03 0.000000000000000000e+00
1.427000000000000000e+03 0.000000000000000000e+00
1.428000000000000000e+03 0.000000000000000000e+00
1.429000000000000000e+03 0.000000000000000000e+00
1.430000000000000000e+03 0.000000000000000000e+00
1.431000000000000000e+03 0.000000000000000000e+00
1.432000000000000000e+03 0.000000000000000000e+00
1.433000000000000000e+03 0.000000000000000000e+00
1.434000000000000000e+03 0.000000000000000000e+00
1.435000000000000000e+03 0.000000000000000000e+00
1.436000000000000000e+03 0.000000000000000000e+00
1.437000000000000000e+03 0.000000000000000000e+00
1.438000000000000000e+03 0.000000000000000000e+00
1.439000000000000000e+03 0.000000000000000000e+00
1.440000000000000000e+03 0.000000000000000000e+00
1.441000000000000000e+03 0.000000000000000000e+00
1.442000000000000000e+03 0.000000000000000000e+00
1.443000000000000000e+03 0.000000000000000000e+00
1.444000000000000000e+03 0.000000000000000000e+00
1.445000000000000000e+03 0.000000000000000000e+00
1.446000000000000000e+03 0.000000000000000000e+00
1.447000000000000000e+03 0.000000000000000000e+00
1.448000000000000000e+03 0.000000000000000000e+00
1.449000000000000000e+03 0.000000000000000000e+00
1.450000000000000000e+03 0.000000000000000000e+00
1.451000000000000000e+03 0.000000000000000000e+00
1.452000000000000000e+03 0.000000000000000000e+00
1.453000000000000000e+03 0.000000000000000000e+00
1.454000000000000000e+03 0.000000000000000000e+00
1.455000000000000000e+03 0.000000000000000000e+00
1.456000000000000000e+03 0.000000000000000000e+00
1.457000000000000000e+03 0.000000000000000000e+00
1.458000000000000000e+03 0.000000000000000000e+00
1.459000000000000000e+03 0.000000000000000000e+00
1.460000000000000000e+03 0.000000000000000000e+00
1.461000000000000000e+03 0.000000000000000000e+00
1.462000000000000000e+03 0.000000000000000000e+00
1.463000000000000000e+03 0.000000000000000000e+00
1.464000000000000000e+03 0.000000000000000000e+00
1.465000000000000000e+03 0.000000000000000000e+00
1.466000000000000000e+03 0.000000000000000000e+00
1.467000000000000000e+03 0.000000000000000000e+00
1.468000000000000000e+03 0.000000000000000000e+00
1.469000000000000000e+03 0.000000000000000000e+00
1.470000000000000000e+03 0.000000000000000000e+00
1.471000000000000000e+03 0.000000000000000000e+00
1.472000000000000000e+03 0.000000000000000000e+00
1.473000000000000000e+03 0.000000000000000000e+00
1.474000000000000000e+03 0.000000000000000000e+00
1.475000000000000000e+03 0.000000000000000000e+00
1.476000000000000000e+03 0.000000000000000000e+00
1.477000000000000000e+03 0.000000000000000000e+00
1.478000000000000000e+03 0.000000000000000000e+00
1.479000000000000000e+03 0.000000000000000000e+00
1.480000000000000000e+03 0.000000000000000000e+00
1.481000000000000000e+03 0.000000000000000000e+00
1.482000000000000000e+03 0.000000000000000000e+00
1.483000000000000000e+03 0.000000000000000000e+00
1.484000000000000000e+03 0.000000000000000000e+00
1.485000000000000000e+03 0.000000000000000000e+00
1.486000000000000000e+03 0.000000000000000000e+00
1.487000000000000000e+03 0.000000000000000000e+00
1.488000000000000000e+03 0.000000000000000000e+00
1.489000000000000000e+03 0.000000000000000000e+00
1.490000000000000000e+03 0.000000000000000000e+00
1.491000000000000000e+03 0.000000000000000000e+00
1.492000000000000000e+03 0.000000000000000000e+00
1.493000000000000000e+03 0.000000000000000000e+00
1.494000000000000000e+03 0.000000000000000000e+00
1.495000000000000000e+03 0.000000000000000000e+00
1.496000000000000000e+03 0.000000000000000000e+00
1.497000000000000000e+03 0.000000000000000000e+00
1.498000000000000000e+03 0.000000000000000000e+00
1.499000000000000000e+03 0.000000000000000000e+00
1.500000000000000000e+03 0.000000000000000000e+00
