1.010000000000000000e+02 0.000000000000000000e+00
1.020000000000000000e+02 0.000000000000000000e+00
1.030000000000000000e+02 0.000000000000000000e+00
1.040000000000000000e+02 0.000000000000000000e+00
1.050000000000000000e+02 0.000000000000000000e+00
1.060000000000000000e+02 0.000000000000000000e+00
1.070000000000000000e+02 0.000000000000000000e+00
1.080000000000000000e+02 0.000000000000000000e+00
1.090000000000000000e+02 0.000000000000000000e+00
1.100000000000000000e+02 0.000000000000000000e+00
1.110000000000000000e+02 0.000000000000000000e+00
1.120000000000000000e+02 0.000000000000000000e+00
1.130000000000000000e+02 0.000000000000000000e+00
1.140000000000000000e+02 0.000000000000000000e+00
1.150000000000000000e+02 0.000000000000000000e+00
1.160000000000000000e+02 0.000000000000000000e+00
1.170000000000000000e+02 0.000000000000000000e+00
1.180000000000000000e+02 0.000000000000000000e+00
1.190000000000000000e+02 0.000000000000000000e+00
1.200000000000000000e+02 0.000000000000000000e+00
1.210000000000000000e+02 0.000000000000000000e+00
1.220000000000000000e+02 0.000000000000000000e+00
1.230000000000000000e+02 0.000000000000000000e+00
1.240000000000000000e+02 0.000000000000000000e+00
1.250000000000000000e+02 0.000000000000000000e+00
1.260000000000000000e+02 0.000000000000000000e+00
1.270000000000000000e+02 0.000000000000000000e+00
1.280000000000000000e+02 0.000000000000000000e+00
1.290000000000000000e+02 0.000000000000000000e+00
1.300000000000000000e+02 0.000000000000000000e+00
1.310000000000000000e+02 0.000000000000000000e+00
1.320000000000000000e+02 0.000000000000000000e+00
1.330000000000000000e+02 0.000000000000000000e+00
1.340000000000000000e+02 0.000000000000000000e+00
1.350000000000000000e+02 0.000000000000000000e+00
1.360000000000000000e+02 0.000000000000000000e+00
1.370000000000000000e+02 0.000000000000000000e+00
1.380000000000000000e+02 0.000000000000000000e+00
1.390000000000000000e+02 0.000000000000000000e+00
1.400000000000000000e+02 0.000000000000000000e+00
1.410000000000000000e+02 0.000000000000000000e+00
1.420000000000000000e+02 0.000000000000000000e+00
1.430000000000000000e+02 0.000000000000000000e+00
1.440000000000000000e+02 0.000000000000000000e+00
1.450000000000000000e+02 0.000000000000000000e+00
1.460000000000000000e+02 0.000000000000000000e+00
1.470000000000000000e+02 0.000000000000000000e+00
1.480000000000000000e+02 0.000000000000000000e+00
1.490000000000000000e+02 0.000000000000000000e+00
1.500000000000000000e+02 0.000000000000000000e+00
1.510000000000000000e+02 0.000000000000000000e+00
1.520000000000000000e+02 5.032134938602054852e+00
1.530000000000000000e+02 3.380187349720021217e+01
1.540000000000000000e+02 1.437934777598006804e+02
1.550000000000000000e+02 3.432378198713946063e+02
1.560000000000000000e+02 5.213602543135614269e+02
1.570000000000000000e+02 7.032308823480620958e+02
1.580000000000000000e+02 8.752284870566275004e+02
1.590000000000000000e+02 9.689622532047285404e+02
1.600000000000000000e+02 1.089563670815181922e+03
1.610000000000000000e+02 1.190569010371293189e+03
1.620000000000000000e+02 1.224684288944202535e+03
1.630000000000000000e+02 1.196613747355320584e+03
1.640000000000000000e+02 1.264612325658576310e+03
1.650000000000000000e+02 1.268800457373988365e+03
1.660000000000000000e+02 1.265916986517320311e+03
1.670000000000000000e+02 1.338730894212818839e+03
1.680000000000000000e+02 1.384798463596763895e+03
1.690000000000000000e+02 1.414140823065754603e+03
1.700000000000000000e+02 1.488510359187060203e+03
1.710000000000000000e+02 1.605387924289566399e+03
1.720000000000000000e+02 1.675978095208462491e+03
1.730000000000000000e+02 1.775105792202405610e+03
1.740000000000000000e+02 1.883962308442232825e+03
1.750000000000000000e+02 2.023967230450114585e+03
1.760000000000000000e+02 2.230496723143922736e+03
1.770000000000000000e+02 2.332034864965773977e+03
1.780000000000000000e+02 2.412695104957479089e+03
1.790000000000000000e+02 2.459477532973869529e+03
1.800000000000000000e+02 2.417009919518772222e+03
1.810000000000000000e+02 2.331020914747979077e+03
1.820000000000000000e+02 2.133347453640321419e+03
1.830000000000000000e+02 1.974732946276705661e+03
1.840000000000000000e+02 1.895737369425430188e+03
1.850000000000000000e+02 1.705257422526448636e+03
1.860000000000000000e+02 1.487541013690106411e+03
1.870000000000000000e+02 1.328525008711884539e+03
1.880000000000000000e+02 1.171191931964322748e+03
1.890000000000000000e+02 9.006205780128617562e+02
1.900000000000000000e+02 7.166353103920365584e+02
1.910000000000000000e+02 5.464636004355926389e+02
1.920000000000000000e+02 3.715624076954983366e+02
1.930000000000000000e+02 2.199836355039409739e+02
1.940000000000000000e+02 1.183629260734297191e+02
1.950000000000000000e+02 6.441152762289932809e+01
1.960000000000000000e+02 -1.913126384567335858e+00
1.970000000000000000e+02 3.815990717485996697e+01
1.980000000000000000e+02 3.698464812362306731e+00
1.990000000000000000e+02 7.141199258037564945e+00
2.000000000000000000e+02 1.298419963285578227e+01
2.010000000000000000e+02 1.741904954158888330e+01
2.020000000000000000e+02 2.297015168014954156e+01
2.030000000000000000e+02 2.520352982783673923e+01
2.040000000000000000e+02 2.781862159925297107e+01
2.050000000000000000e+02 7.772024499813255716e+00
2.060000000000000000e+02 3.970264265090193589e+01
2.070000000000000000e+02 1.009940638249320699e+02
2.080000000000000000e+02 1.627683890064307661e+02
2.090000000000000000e+02 2.106475969508401818e+02
2.100000000000000000e+02 2.696040563251759750e+02
2.110000000000000000e+02 4.200634951462339473e+02
2.120000000000000000e+02 5.111935079444110102e+02
2.130000000000000000e+02 6.344668344462887717e+02
2.140000000000000000e+02 7.534816148102053148e+02
2.150000000000000000e+02 8.195461925948965245e+02
2.160000000000000000e+02 1.001649983824140008e+03
2.170000000000000000e+02 1.207738969093550395e+03
2.180000000000000000e+02 1.443639069695084345e+03
2.190000000000000000e+02 1.691279202198256598e+03
2.200000000000000000e+02 1.863771802945444506e+03
2.210000000000000000e+02 2.271670937149974179e+03
2.220000000000000000e+02 2.572087912258867618e+03
2.230000000000000000e+02 2.779018544492842466e+03
2.240000000000000000e+02 3.102551330014517134e+03
2.250000000000000000e+02 3.303125983405933312e+03
2.260000000000000000e+02 3.339163995021779556e+03
2.270000000000000000e+02 3.379870993778514730e+03
2.280000000000000000e+02 3.538273864343495461e+03
2.290000000000000000e+02 3.708347555278987784e+03
2.300000000000000000e+02 3.968545974699296494e+03
2.310000000000000000e+02 4.171611645924082040e+03
2.320000000000000000e+02 4.255774151213440746e+03
2.330000000000000000e+02 4.254857384902529702e+03
2.340000000000000000e+02 4.170971479361128331e+03
2.350000000000000000e+02 4.111130739473138419e+03
2.360000000000000000e+02 3.990058658784485942e+03
2.370000000000000000e+02 3.739169871810830500e+03
2.380000000000000000e+02 3.493075648205764082e+03
2.390000000000000000e+02 3.305355618958721607e+03
2.400000000000000000e+02 3.047700361128397617e+03
2.410000000000000000e+02 2.729640780336032094e+03
2.420000000000000000e+02 2.500488874922212744e+03
2.430000000000000000e+02 2.286219231902093725e+03
2.440000000000000000e+02 2.042976000207425841e+03
2.450000000000000000e+02 1.812626811864760157e+03
2.460000000000000000e+02 1.633431225886743960e+03
2.470000000000000000e+02 1.461392378967017748e+03
2.480000000000000000e+02 1.304087155984235551e+03
2.490000000000000000e+02 1.225513957892553435e+03
2.500000000000000000e+02 1.206042596433015888e+03
2.510000000000000000e+02 1.153412795892968006e+03
2.520000000000000000e+02 1.141520129641153289e+03
2.530000000000000000e+02 1.157794881791787475e+03
2.540000000000000000e+02 1.182169391412569894e+03
2.550000000000000000e+02 1.184104485998755536e+03
2.560000000000000000e+02 1.196328208419742850e+03
2.570000000000000000e+02 1.271879851690520354e+03
2.580000000000000000e+02 1.314572949595519503e+03
2.590000000000000000e+02 1.335428334301120231e+03
2.600000000000000000e+02 1.423890927193528796e+03
2.610000000000000000e+02 1.467350330014519841e+03
2.620000000000000000e+02 1.520223066168846117e+03
2.630000000000000000e+02 1.603162224849618042e+03
2.640000000000000000e+02 1.724961268201619305e+03
2.650000000000000000e+02 1.858693003111385678e+03
2.660000000000000000e+02 1.997027696121140025e+03
2.670000000000000000e+02 2.143754456959140043e+03
2.680000000000000000e+02 2.264331803360297727e+03
2.690000000000000000e+02 2.330428153080271386e+03
2.700000000000000000e+02 2.481707856046464258e+03
2.710000000000000000e+02 2.571276225264467485e+03
2.720000000000000000e+02 2.618523948558389293e+03
2.730000000000000000e+02 2.696981726820159565e+03
2.740000000000000000e+02 2.829481386434349588e+03
2.750000000000000000e+02 2.977589840074672338e+03
2.760000000000000000e+02 3.113038740356696962e+03
2.770000000000000000e+02 3.277226223605062842e+03
2.780000000000000000e+02 3.502484685127567445e+03
2.790000000000000000e+02 3.642775254458731524e+03
2.800000000000000000e+02 3.775874012652978763e+03
2.810000000000000000e+02 3.958905551223558177e+03
2.820000000000000000e+02 4.144025285003107456e+03
2.830000000000000000e+02 4.200262069695084392e+03
2.840000000000000000e+02 4.160188684985482723e+03
2.850000000000000000e+02 4.065554507985897089e+03
2.860000000000000000e+02 3.879871684090443523e+03
2.870000000000000000e+02 3.579646715885526646e+03
2.880000000000000000e+02 3.276871439950220520e+03
2.890000000000000000e+02 2.922769536818092547e+03
2.900000000000000000e+02 2.579132921178177185e+03
2.910000000000000000e+02 2.286597879070732233e+03
2.920000000000000000e+02 2.022299262601122109e+03
2.930000000000000000e+02 1.676993660236460983e+03
2.940000000000000000e+02 1.398192851483093136e+03
2.950000000000000000e+02 1.170346293300144680e+03
2.960000000000000000e+02 9.491406324621405020e+02
2.970000000000000000e+02 7.692564212818888336e+02
2.980000000000000000e+02 5.847315013897510880e+02
2.990000000000000000e+02 4.930661304501149971e+02
3.000000000000000000e+02 4.311003905206363811e+02
3.010000000000000000e+02 2.952139066583668523e+02
3.020000000000000000e+02 1.592215724331073829e+02
3.030000000000000000e+02 9.506483127774401964e+01
3.040000000000000000e+02 5.445274439651716847e+01
3.050000000000000000e+02 1.158387048226533622e+01
3.060000000000000000e+02 1.991586867454811127e+01
3.070000000000000000e+02 7.663369742015714792e+01
3.080000000000000000e+02 7.887942918689068961e+01
3.090000000000000000e+02 2.928299503215117028e+01
3.100000000000000000e+02 4.402657755288240793e+01
3.110000000000000000e+02 7.853087362165621244e+01
3.120000000000000000e+02 3.725670194565412174e+01
3.130000000000000000e+02 1.833293731024543405e+01
3.140000000000000000e+02 4.291818730346405175e+01
3.150000000000000000e+02 1.394496338518936795e+01
3.160000000000000000e+02 4.425588466708128266e+01
3.170000000000000000e+02 2.195658317776306490e+01
3.180000000000000000e+02 2.259102066583809076e+01
3.190000000000000000e+02 7.269464529350696580e+01
3.200000000000000000e+02 1.038102562538886673e+02
3.210000000000000000e+02 1.262392816842977936e+02
3.220000000000000000e+02 1.107970528521056508e+02
3.230000000000000000e+02 9.089317952292057612e+01
3.240000000000000000e+02 1.148210821966386845e+02
3.250000000000000000e+02 1.888492910392035355e+02
3.260000000000000000e+02 1.598770105579758081e+02
3.270000000000000000e+02 1.424014427297239536e+02
3.280000000000000000e+02 1.447611870773697831e+02
3.290000000000000000e+02 1.269570485376477365e+02
3.300000000000000000e+02 1.219688618208212318e+02
3.310000000000000000e+02 1.240513502177976193e+02
3.320000000000000000e+02 1.888737928023247150e+02
3.330000000000000000e+02 2.413863222729159475e+02
3.340000000000000000e+02 1.435755334785295361e+02
3.350000000000000000e+02 1.103234939431654595e+02
3.360000000000000000e+02 1.597763500000000079e+02
3.370000000000000000e+02 1.749089845882608643e+02
3.380000000000000000e+02 1.359280955818296377e+02
3.390000000000000000e+02 1.638570264620489638e+02
3.400000000000000000e+02 1.178286783239999664e+02
3.410000000000000000e+02 1.615232250570402641e+02
3.420000000000000000e+02 2.216989001866445506e+02
3.430000000000000000e+02 1.977918188550093817e+02
3.440000000000000000e+02 1.952592969923247495e+02
3.450000000000000000e+02 2.675578877411331860e+02
3.460000000000000000e+02 2.815458666251812474e+02
3.470000000000000000e+02 2.662795114499066358e+02
3.480000000000000000e+02 3.214554253889245388e+02
3.490000000000000000e+02 3.802670261771425544e+02
3.500000000000000000e+02 4.586563674408951101e+02
3.510000000000000000e+02 5.680773312590755495e+02
3.520000000000000000e+02 6.516237322962048211e+02
3.530000000000000000e+02 6.585489047915368701e+02
3.540000000000000000e+02 6.878093133374809440e+02
3.550000000000000000e+02 7.862689302634277055e+02
3.560000000000000000e+02 8.882819573739882344e+02
3.570000000000000000e+02 9.318986125077786937e+02
3.580000000000000000e+02 8.974468296972220287e+02
3.590000000000000000e+02 8.339876314250154792e+02
3.600000000000000000e+02 8.762260162207007852e+02
3.610000000000000000e+02 9.048013654914973358e+02
3.620000000000000000e+02 8.518497838830115825e+02
3.630000000000000000e+02 8.283056573325034151e+02
3.640000000000000000e+02 7.315898833056805870e+02
3.650000000000000000e+02 6.093314283136254517e+02
3.660000000000000000e+02 5.099366630989410965e+02
3.670000000000000000e+02 4.419529150559945379e+02
3.680000000000000000e+02 3.536227613150779803e+02
3.690000000000000000e+02 2.558769597386411476e+02
3.700000000000000000e+02 2.504732879485579247e+02
3.710000000000000000e+02 2.373963787803394041e+02
3.720000000000000000e+02 9.257586625596559315e+01
3.730000000000000000e+02 3.245053656502822292e+01
3.740000000000000000e+02 3.854933225471699920e+00
3.750000000000000000e+02 7.503258867454975167e+00
3.760000000000000000e+02 5.223653453017985449e+00
3.770000000000000000e+02 1.872298583281473583e+01
3.780000000000000000e+02 2.225157178801070756e+01
3.790000000000000000e+02 7.700321020120398430e+01
3.800000000000000000e+02 4.304121499688793051e+01
3.810000000000000000e+02 4.141791683468163399e+01
3.820000000000000000e+02 2.173853217174822561e+01
3.830000000000000000e+02 4.199805021572332464e+01
3.840000000000000000e+02 6.323239059726264344e+01
3.850000000000000000e+02 6.842050250155578794e+01
3.860000000000000000e+02 6.817413205973883805e+01
3.870000000000000000e+02 9.089685615927059814e+01
3.880000000000000000e+02 1.636994549678478563e+02
3.890000000000000000e+02 1.651981678904799935e+02
3.900000000000000000e+02 1.743825729987563307e+02
3.910000000000000000e+02 2.435772291225878803e+02
3.920000000000000000e+02 3.087807245177341429e+02
3.930000000000000000e+02 2.981779962048942707e+02
3.940000000000000000e+02 3.860110441817047899e+02
3.950000000000000000e+02 4.864122253474378113e+02
3.960000000000000000e+02 5.247854141020327461e+02
3.970000000000000000e+02 5.302062129848583254e+02
3.980000000000000000e+02 6.119667395768514098e+02
3.990000000000000000e+02 6.409796539514622964e+02
4.000000000000000000e+02 6.597186014934670766e+02
4.010000000000000000e+02 6.944776301389750870e+02
4.020000000000000000e+02 6.770762238124868873e+02
4.030000000000000000e+02 7.971345987554479962e+02
4.040000000000000000e+02 8.350887538477485350e+02
4.050000000000000000e+02 8.318802239991696297e+02
4.060000000000000000e+02 9.117041745903312631e+02
4.070000000000000000e+02 1.046453053515869897e+03
4.080000000000000000e+02 1.089402672682016146e+03
4.090000000000000000e+02 1.171348406762080685e+03
4.100000000000000000e+02 1.256301419622483763e+03
4.110000000000000000e+02 1.291701274009541521e+03
4.120000000000000000e+02 1.372141706285002329e+03
4.130000000000000000e+02 1.520806294068850320e+03
4.140000000000000000e+02 1.606813057664385269e+03
4.150000000000000000e+02 1.627085610869114362e+03
4.160000000000000000e+02 1.687116837411863571e+03
4.170000000000000000e+02 1.858758889856878341e+03
4.180000000000000000e+02 1.866192706907280353e+03
4.190000000000000000e+02 1.938838367897135868e+03
4.200000000000000000e+02 2.034989235843187316e+03
4.210000000000000000e+02 2.065444479883865370e+03
4.220000000000000000e+02 2.110412401991287425e+03
4.230000000000000000e+02 2.122402805434557195e+03
4.240000000000000000e+02 2.098336226923875074e+03
4.250000000000000000e+02 2.102635257000622005e+03
4.260000000000000000e+02 2.144729734909770286e+03
4.270000000000000000e+02 2.086642219663970081e+03
4.280000000000000000e+02 2.029745106824310369e+03
4.290000000000000000e+02 1.932859069902510555e+03
4.300000000000000000e+02 1.823425217797136156e+03
4.310000000000000000e+02 1.748852601120099052e+03
4.320000000000000000e+02 1.697447003111387403e+03
4.330000000000000000e+02 1.575905833851894613e+03
4.340000000000000000e+02 1.455707385189792831e+03
4.350000000000000000e+02 1.352795848164279960e+03
4.360000000000000000e+02 1.252165451773493714e+03
4.370000000000000000e+02 1.141075122173820091e+03
4.380000000000000000e+02 1.052812673164659827e+03
4.390000000000000000e+02 8.927989602364684742e+02
4.400000000000000000e+02 7.780927573117612610e+02
4.410000000000000000e+02 7.692068611364583148e+02
4.420000000000000000e+02 7.324048666459245851e+02
4.430000000000000000e+02 6.446108316531851870e+02
4.440000000000000000e+02 5.948973522189965024e+02
4.450000000000000000e+02 5.277805323584317421e+02
4.460000000000000000e+02 4.199966089607970048e+02
4.470000000000000000e+02 3.537902995437574418e+02
4.480000000000000000e+02 3.593965729724125708e+02
4.490000000000000000e+02 3.734507169881767936e+02
4.500000000000000000e+02 3.845717267731234870e+02
4.510000000000000000e+02 3.559451804189978930e+02
4.520000000000000000e+02 2.308116373988787586e+02
4.530000000000000000e+02 1.628134324621451015e+02
4.540000000000000000e+02 1.806947715619176051e+02
4.550000000000000000e+02 1.676231854801891643e+02
4.560000000000000000e+02 1.090349725368184579e+02
4.570000000000000000e+02 9.920393209914969646e+01
4.580000000000000000e+02 8.930106696950875289e+01
4.590000000000000000e+02 7.418791389545751258e+01
4.600000000000000000e+02 4.601566077369887608e+01
4.610000000000000000e+02 2.644696586807715022e+01
4.620000000000000000e+02 2.916193453018045290e+01
4.630000000000000000e+02 2.101981977722445549e+01
4.640000000000000000e+02 1.297856736154351331e+01
4.650000000000000000e+02 5.666356838415386399e+00
4.660000000000000000e+02 1.957954249740727803e+01
4.670000000000000000e+02 3.702060765864789005e+01
4.680000000000000000e+02 4.216197075917884263e+01
4.690000000000000000e+02 6.711914730761284886e+01
4.700000000000000000e+02 7.623905262961432072e+01
4.710000000000000000e+02 4.469694966811865555e+01
4.720000000000000000e+02 5.861712680771628214e+00
4.730000000000000000e+02 3.982726490875142389e+01
4.740000000000000000e+02 3.538536883841570102e+01
4.750000000000000000e+02 2.634432388716041018e+01
4.760000000000000000e+02 1.620668618000834371e+01
4.770000000000000000e+02 6.521910770379534483e+00
4.780000000000000000e+02 2.082894177100233790e+01
4.790000000000000000e+02 4.375089947106410904e+01
4.800000000000000000e+02 3.274098604438866289e+01
4.810000000000000000e+02 1.182384202862476457e+02
4.820000000000000000e+02 1.206718257622900126e+02
4.830000000000000000e+02 1.394080477909149920e+02
4.840000000000000000e+02 2.111926796307819814e+02
4.850000000000000000e+02 2.337982407799211160e+02
4.860000000000000000e+02 2.385171237710019909e+02
4.870000000000000000e+02 2.687550386641779596e+02
4.880000000000000000e+02 3.293717570835935931e+02
4.890000000000000000e+02 3.870666358846725075e+02
4.900000000000000000e+02 4.581983839452409484e+02
4.910000000000000000e+02 4.611281229620416866e+02
4.920000000000000000e+02 4.871718890501829833e+02
4.930000000000000000e+02 6.329641471064088591e+02
4.940000000000000000e+02 7.079880961626215594e+02
4.950000000000000000e+02 7.118866631895480168e+02
4.960000000000000000e+02 7.405082595519603501e+02
4.970000000000000000e+02 7.709157568139390833e+02
4.980000000000000000e+02 8.039037291995027772e+02
4.990000000000000000e+02 9.425145284173423761e+02
5.000000000000000000e+02 1.056988805227131706e+03
5.010000000000000000e+02 1.064066234135212881e+03
5.020000000000000000e+02 1.062324105164904267e+03
5.030000000000000000e+02 1.105111367351172703e+03
5.040000000000000000e+02 1.148167824554126128e+03
5.050000000000000000e+02 1.184747792159302207e+03
5.060000000000000000e+02 1.217989948765816735e+03
5.070000000000000000e+02 1.219890695084007803e+03
5.080000000000000000e+02 1.205841298278365230e+03
5.090000000000000000e+02 1.210177757311761297e+03
5.100000000000000000e+02 1.193443571250777950e+03
5.110000000000000000e+02 1.200810769135033979e+03
5.120000000000000000e+02 1.216149528935905209e+03
5.130000000000000000e+02 1.203909126944618038e+03
5.140000000000000000e+02 1.161475886745489333e+03
5.150000000000000000e+02 1.132979602986932150e+03
5.160000000000000000e+02 1.132392856461314977e+03
5.170000000000000000e+02 1.145064723916199910e+03
5.180000000000000000e+02 1.121804035255080862e+03
5.190000000000000000e+02 1.060514520846296591e+03
5.200000000000000000e+02 1.019002213233768998e+03
5.210000000000000000e+02 1.033277039402737500e+03
5.220000000000000000e+02 9.922226080481220833e+02
5.230000000000000000e+02 9.600170919726198235e+02
5.240000000000000000e+02 9.534602798423890135e+02
5.250000000000000000e+02 9.418403315909563389e+02
5.260000000000000000e+02 9.697474883426674523e+02
5.270000000000000000e+02 9.426773697221067323e+02
5.280000000000000000e+02 8.913281016801490750e+02
5.290000000000000000e+02 8.408032065753994857e+02
5.300000000000000000e+02 7.926470940481124217e+02
5.310000000000000000e+02 7.452857549471065113e+02
5.320000000000000000e+02 7.686696804604853241e+02
5.330000000000000000e+02 7.360960108898565295e+02
5.340000000000000000e+02 7.290399872847955294e+02
5.350000000000000000e+02 7.469778726612743185e+02
5.360000000000000000e+02 6.965063645094378444e+02
5.370000000000000000e+02 6.817329655880524797e+02
5.380000000000000000e+02 6.451394205144169973e+02
5.390000000000000000e+02 5.785101330014521182e+02
5.400000000000000000e+02 5.432304016179215296e+02
5.410000000000000000e+02 5.378748787181093576e+02
5.420000000000000000e+02 4.519249186060986858e+02
5.430000000000000000e+02 4.912660087948548835e+02
5.440000000000000000e+02 4.398334327110583786e+02
5.450000000000000000e+02 4.240267437461100712e+02
5.460000000000000000e+02 4.771878501555700041e+02
5.470000000000000000e+02 4.261505077561183725e+02
5.480000000000000000e+02 4.155361000829704494e+02
5.490000000000000000e+02 4.390487419000209570e+02
5.500000000000000000e+02 4.185460181252607867e+02
5.510000000000000000e+02 3.787183863721220405e+02
5.520000000000000000e+02 3.893125956855417371e+02
5.530000000000000000e+02 4.178752522604724504e+02
5.540000000000000000e+02 4.160244338104129156e+02
5.550000000000000000e+02 4.577394324828853769e+02
5.560000000000000000e+02 4.540973164247213276e+02
5.570000000000000000e+02 4.096984925534122226e+02
5.580000000000000000e+02 4.503972241028820349e+02
5.590000000000000000e+02 4.098057854179634205e+02
5.600000000000000000e+02 4.020609261978838163e+02
5.610000000000000000e+02 4.702235044389113909e+02
5.620000000000000000e+02 5.285839615847330606e+02
5.630000000000000000e+02 5.278952976768310918e+02
5.640000000000000000e+02 6.440453731798384069e+02
5.650000000000000000e+02 6.289858538892329989e+02
5.660000000000000000e+02 5.712976936527676344e+02
5.670000000000000000e+02 5.582803164696127851e+02
5.680000000000000000e+02 5.992403182327302602e+02
5.690000000000000000e+02 6.406454344119466668e+02
5.700000000000000000e+02 6.333023289566473295e+02
5.710000000000000000e+02 6.321042213648619281e+02
5.720000000000000000e+02 6.444310302634299887e+02
5.730000000000000000e+02 6.683310713396916753e+02
5.740000000000000000e+02 6.823682405102691746e+02
5.750000000000000000e+02 6.363184657954769818e+02
5.760000000000000000e+02 7.514593861053486989e+02
5.770000000000000000e+02 8.138963764364239069e+02
5.780000000000000000e+02 8.128710243310516717e+02
5.790000000000000000e+02 7.916688214019075076e+02
5.800000000000000000e+02 7.791160106409463424e+02
5.810000000000000000e+02 8.332873100186694728e+02
5.820000000000000000e+02 8.688259010991281457e+02
5.830000000000000000e+02 8.278583255133758030e+02
5.840000000000000000e+02 7.639797106409436083e+02
5.850000000000000000e+02 7.409495326073432580e+02
5.860000000000000000e+02 7.601769015764382402e+02
5.870000000000000000e+02 7.178263465367057279e+02
5.880000000000000000e+02 7.346578401991280316e+02
5.890000000000000000e+02 7.399544520224027337e+02
5.900000000000000000e+02 7.195051079220243082e+02
5.910000000000000000e+02 6.941603320058083000e+02
5.920000000000000000e+02 6.253959834474179615e+02
5.930000000000000000e+02 5.984014895479053848e+02
5.940000000000000000e+02 5.698002469197257369e+02
5.950000000000000000e+02 5.852966344326911212e+02
5.960000000000000000e+02 6.000405443177093048e+02
5.970000000000000000e+02 5.270118259489706816e+02
5.980000000000000000e+02 4.907258224019925592e+02
5.990000000000000000e+02 4.620930915162828683e+02
6.000000000000000000e+02 4.968962009539637279e+02
6.010000000000000000e+02 5.237834680564209293e+02
6.020000000000000000e+02 5.103140579340374643e+02
6.030000000000000000e+02 5.249397171090849952e+02
6.040000000000000000e+02 4.270566760838007667e+02
6.050000000000000000e+02 4.246249749636999127e+02
6.060000000000000000e+02 3.899661160099543054e+02
6.070000000000000000e+02 4.105329082762916073e+02
6.080000000000000000e+02 3.547523583696311107e+02
6.090000000000000000e+02 3.307353913313964995e+02
6.100000000000000000e+02 3.308808290188781598e+02
6.110000000000000000e+02 2.938895052893612956e+02
6.120000000000000000e+02 2.996877443799266416e+02
6.130000000000000000e+02 2.502769609624584177e+02
6.140000000000000000e+02 2.700795176104513189e+02
6.150000000000000000e+02 2.381228293715044231e+02
6.160000000000000000e+02 1.933627046670819141e+02
6.170000000000000000e+02 1.503708685749818130e+02
6.180000000000000000e+02 6.910771341008219792e+01
6.190000000000000000e+02 4.345784462766941658e+01
6.200000000000000000e+02 1.074263874299932695e+02
6.210000000000000000e+02 8.020709752333510778e+01
6.220000000000000000e+02 2.376073037751507400e+01
6.230000000000000000e+02 4.368256785729098368e+01
6.240000000000000000e+02 2.670109435801724374e+01
6.250000000000000000e+02 8.039428943372763570e+01
6.260000000000000000e+02 7.277264700331608438e+00
6.270000000000000000e+02 2.066842566687435223e+01
6.280000000000000000e+02 9.041094161792264217e+00
6.290000000000000000e+02 4.085914430112095630e+01
6.300000000000000000e+02 5.184845227753448427e+01
6.310000000000000000e+02 1.694564419622481211e+01
6.320000000000000000e+02 3.237023496059649830e+01
6.330000000000000000e+02 6.730393468159925874e+01
6.340000000000000000e+02 5.005340523335250680e+01
6.350000000000000000e+02 1.972312783243600975e+01
6.360000000000000000e+02 2.994592874507367952e+01
6.370000000000000000e+02 1.238765786766222732e+01
6.380000000000000000e+02 2.511452612401516404e+01
6.390000000000000000e+02 5.350901812694524295e+01
6.400000000000000000e+02 7.384437620825544002e+01
6.410000000000000000e+02 3.743664045426042009e+01
6.420000000000000000e+02 4.393715605476201347e+01
6.430000000000000000e+02 1.019781933665213387e+02
6.440000000000000000e+02 7.531479172370822539e+01
6.450000000000000000e+02 6.968014893383114838e+01
6.460000000000000000e+02 6.256047558182945778e+01
6.470000000000000000e+02 5.798572082140631068e+01
6.480000000000000000e+02 9.559187212196718519e+01
6.490000000000000000e+02 1.722103754407799556e+02
6.500000000000000000e+02 1.900560007882181424e+02
6.510000000000000000e+02 2.104056043559425575e+02
6.520000000000000000e+02 1.959401721841942390e+02
6.530000000000000000e+02 2.171582004355949493e+02
6.540000000000000000e+02 2.377982964737604163e+02
6.550000000000000000e+02 1.886937189340520717e+02
6.560000000000000000e+02 2.620257275254103888e+02
6.570000000000000000e+02 3.510762833851896971e+02
6.580000000000000000e+02 3.933473198672749618e+02
6.590000000000000000e+02 4.059103981539100232e+02
6.600000000000000000e+02 4.329815120721839321e+02
6.610000000000000000e+02 4.888896350062215106e+02
6.620000000000000000e+02 5.352726240821406236e+02
6.630000000000000000e+02 5.298854547396806538e+02
6.640000000000000000e+02 5.848043380754875216e+02
6.650000000000000000e+02 6.737691413607132063e+02
6.660000000000000000e+02 7.504919331673917213e+02
6.670000000000000000e+02 8.118013462352209899e+02
6.680000000000000000e+02 8.812639669570633032e+02
6.690000000000000000e+02 9.390706254873491616e+02
6.700000000000000000e+02 9.688524185646131173e+02
6.710000000000000000e+02 1.080900101431236180e+03
6.720000000000000000e+02 1.176507310244712471e+03
6.730000000000000000e+02 1.129826235428334030e+03
6.740000000000000000e+02 1.226526816635551086e+03
6.750000000000000000e+02 1.285013627540439074e+03
6.760000000000000000e+02 1.376848657747354309e+03
6.770000000000000000e+02 1.421870921593030516e+03
6.780000000000000000e+02 1.413551843218581553e+03
6.790000000000000000e+02 1.408433496162622305e+03
6.800000000000000000e+02 1.343271968886125251e+03
6.810000000000000000e+02 1.252980041692594796e+03
6.820000000000000000e+02 1.238462522298278373e+03
6.830000000000000000e+02 1.282844797759800940e+03
6.840000000000000000e+02 1.208703306160551392e+03
6.850000000000000000e+02 9.697396131300546358e+02
6.860000000000000000e+02 9.580806387264050272e+02
6.870000000000000000e+02 9.022270417963090949e+02
6.880000000000000000e+02 8.146025807301414261e+02
6.890000000000000000e+02 7.134975766645961812e+02
6.900000000000000000e+02 6.351014229620420792e+02
6.910000000000000000e+02 5.769645646338958613e+02
6.920000000000000000e+02 4.850867982783685193e+02
6.930000000000000000e+02 4.849161972619784819e+02
6.940000000000000000e+02 4.783991019912884326e+02
6.950000000000000000e+02 4.728274783907093592e+02
6.960000000000000000e+02 4.587185688031530049e+02
6.970000000000000000e+02 4.231227320887784913e+02
6.980000000000000000e+02 3.759906572376605709e+02
6.990000000000000000e+02 2.975046617299308309e+02
7.000000000000000000e+02 3.114838737398887929e+02
7.010000000000000000e+02 3.581846817917862040e+02
7.020000000000000000e+02 3.660624887160348635e+02
7.030000000000000000e+02 3.329254654635954012e+02
7.040000000000000000e+02 2.920260761924528197e+02
7.050000000000000000e+02 2.361068723916216356e+02
7.060000000000000000e+02 2.645622367765997751e+02
7.070000000000000000e+02 2.592447934453447260e+02
7.080000000000000000e+02 2.052374107031758683e+02
7.090000000000000000e+02 1.390306197469424774e+02
7.100000000000000000e+02 1.101266270898147752e+02
7.110000000000000000e+02 1.758380450321505748e+02
7.120000000000000000e+02 1.755591660236467817e+02
7.130000000000000000e+02 1.673008097075295382e+02
7.140000000000000000e+02 1.632580631404272253e+02
7.150000000000000000e+02 1.599458764779091666e+02
7.160000000000000000e+02 1.714702142708989641e+02
7.170000000000000000e+02 1.930326071561916024e+02
7.180000000000000000e+02 1.346544785521654433e+02
7.190000000000000000e+02 1.245210870358841504e+02
7.200000000000000000e+02 9.029904148516561690e+01
7.210000000000000000e+02 5.570767450850339486e+01
7.220000000000000000e+02 6.937339651524571593e+01
7.230000000000000000e+02 7.763760722256679969e+01
7.240000000000000000e+02 1.058428165076733194e+02
7.250000000000000000e+02 7.088172857913373548e+01
7.260000000000000000e+02 5.375021101431212855e+01
7.270000000000000000e+02 8.784800422438785006e+01
7.280000000000000000e+02 1.014002171333746105e+02
7.290000000000000000e+02 6.356164448869530759e+01
7.300000000000000000e+02 1.084420001659067339e+02
7.310000000000000000e+02 2.810618849408749043e+01
7.320000000000000000e+02 2.644208005185588206e+01
7.330000000000000000e+02 6.947993058482032325e+01
7.340000000000000000e+02 5.702210041485093939e+01
7.350000000000000000e+02 5.356965563783574424e+01
7.360000000000000000e+02 7.656468856876421114e+01
7.370000000000000000e+02 1.137940499730417621e+01
7.380000000000000000e+02 6.654317441789181942e+00
7.390000000000000000e+02 6.857518710225695813e+00
7.400000000000000000e+02 1.076214401161356804e+01
7.410000000000000000e+02 2.853483409334160825e+01
7.420000000000000000e+02 8.794405195602571723e+01
7.430000000000000000e+02 2.892096610120179889e+01
7.440000000000000000e+02 4.313503967849118936e+00
7.450000000000000000e+02 2.628584407591835514e+01
7.460000000000000000e+02 2.326862433637409566e+01
7.470000000000000000e+02 2.553909651898131372e+01
7.480000000000000000e+02 8.249059473760512162e+01
7.490000000000000000e+02 4.613087780958434081e+01
7.500000000000000000e+02 3.111209759178661116e+01
7.510000000000000000e+02 6.753970807134086840e+01
7.520000000000000000e+02 3.136969223231950465e+01
7.530000000000000000e+02 2.930073215681037979e+01
7.540000000000000000e+02 9.469059757361848995e+01
7.550000000000000000e+02 2.074470701929083205e+01
7.560000000000000000e+02 4.862808721427060021e+01
7.570000000000000000e+02 7.360850204479478975e+01
7.580000000000000000e+02 3.467253280647052094e+01
7.590000000000000000e+02 4.482420068450608142e+01
7.600000000000000000e+02 1.540157852965623135e+02
7.610000000000000000e+02 2.510498719145383859e+02
7.620000000000000000e+02 1.795581287077366142e+02
7.630000000000000000e+02 1.762690939016795539e+02
7.640000000000000000e+02 1.176752901804589584e+02
7.650000000000000000e+02 1.335226136278796503e+02
7.660000000000000000e+02 1.883188124248075894e+02
7.670000000000000000e+02 2.032335511304712838e+02
7.680000000000000000e+02 2.032949701929055095e+02
7.690000000000000000e+02 1.595591492843811068e+02
7.700000000000000000e+02 2.040596310931334187e+02
7.710000000000000000e+02 1.699006663140438036e+02
7.720000000000000000e+02 1.820787714789470897e+02
7.730000000000000000e+02 2.712368784069702770e+02
7.740000000000000000e+02 3.251351876581624083e+02
7.750000000000000000e+02 2.999669503629947940e+02
7.760000000000000000e+02 2.852725666874091530e+02
7.770000000000000000e+02 2.755410753629197416e+02
7.780000000000000000e+02 2.297689764156802426e+02
7.790000000000000000e+02 1.981189506533914653e+02
7.800000000000000000e+02 2.161510599336379812e+02
7.810000000000000000e+02 2.400731182119890548e+02
7.820000000000000000e+02 2.146813986932171474e+02
7.830000000000000000e+02 2.452525766486942302e+02
7.840000000000000000e+02 3.780363473760649526e+02
7.850000000000000000e+02 3.693856927608377987e+02
7.860000000000000000e+02 2.738521811281616465e+02
7.870000000000000000e+02 2.676658596764157778e+02
7.880000000000000000e+02 3.290713957685127866e+02
7.890000000000000000e+02 3.436128559220067586e+02
7.900000000000000000e+02 2.197963015349508851e+02
7.910000000000000000e+02 1.665096703795892381e+02
7.920000000000000000e+02 1.876483244555075203e+02
7.930000000000000000e+02 2.399558691142916018e+02
7.940000000000000000e+02 2.864873564613149597e+02
7.950000000000000000e+02 2.735979216967431853e+02
7.960000000000000000e+02 2.271210092097075801e+02
7.970000000000000000e+02 3.017697572702745106e+02
7.980000000000000000e+02 3.185791131715411098e+02
7.990000000000000000e+02 2.923877388093758327e+02
8.000000000000000000e+02 2.652771429371506997e+02
8.010000000000000000e+02 2.627257307405101301e+02
8.020000000000000000e+02 3.749122215515451444e+02
8.030000000000000000e+02 3.891811756117798495e+02
8.040000000000000000e+02 3.387982655465672792e+02
8.050000000000000000e+02 3.655730653391424880e+02
8.060000000000000000e+02 3.966759915802575733e+02
8.070000000000000000e+02 4.216521351379371936e+02
8.080000000000000000e+02 4.739682820369228011e+02
8.090000000000000000e+02 4.075353189962673923e+02
8.100000000000000000e+02 4.890240574984429713e+02
8.110000000000000000e+02 4.885224824517745219e+02
8.120000000000000000e+02 4.487317858150150300e+02
8.130000000000000000e+02 4.421663110557972800e+02
8.140000000000000000e+02 4.341730407591795711e+02
8.150000000000000000e+02 3.757837039203485006e+02
8.160000000000000000e+02 3.871265155154527520e+02
8.170000000000000000e+02 4.297803231279817737e+02
8.180000000000000000e+02 3.744357811449897326e+02
8.190000000000000000e+02 3.374505650902302136e+02
8.200000000000000000e+02 3.341965226301596203e+02
8.210000000000000000e+02 3.346804598630986334e+02
8.220000000000000000e+02 3.224565676000808025e+02
8.230000000000000000e+02 2.284208516490327270e+02
8.240000000000000000e+02 1.803491315494717355e+02
8.250000000000000000e+02 1.698910252852106169e+02
8.260000000000000000e+02 1.646440464219045339e+02
8.270000000000000000e+02 1.737283057456952520e+02
8.280000000000000000e+02 1.408274777846950201e+02
8.290000000000000000e+02 2.863917079842154223e+01
8.300000000000000000e+02 1.104885195187709002e+02
8.310000000000000000e+02 1.480234006430209490e+02
8.320000000000000000e+02 3.762600807548756876e+01
8.330000000000000000e+02 4.524348289359042496e+01
8.340000000000000000e+02 1.799377513959743524e+01
8.350000000000000000e+02 4.063358449191452060e+00
8.360000000000000000e+02 7.107667178178003198e+00
8.370000000000000000e+02 4.189906406347292744e+01
8.380000000000000000e+02 8.654234985899808663e+00
8.390000000000000000e+02 2.657898591785758668e+01
8.400000000000000000e+02 4.698781877411378360e+01
8.410000000000000000e+02 1.639947158233255209e+01
8.420000000000000000e+02 6.347209401991735689e+01
8.430000000000000000e+02 2.930553784484248681e+01
8.440000000000000000e+02 7.003623293507646963e+01
8.450000000000000000e+02 1.745256581663653250e+01
8.460000000000000000e+02 1.534471778469208481e+01
8.470000000000000000e+02 5.017340690728062214e+01
8.480000000000000000e+02 6.077121188342682956e+01
8.490000000000000000e+02 7.483076002281672245e+00
8.500000000000000000e+02 3.575486703588549631e+01
8.510000000000000000e+02 6.666911968263873689e+01
8.520000000000000000e+02 5.091938541173981037e+01
8.530000000000000000e+02 1.737177795477983722e+01
8.540000000000000000e+02 1.582380425181551864e+01
8.550000000000000000e+02 6.627734671505868391e+01
8.560000000000000000e+02 1.103709547230878485e+02
8.570000000000000000e+02 1.163020954988629967e+02
8.580000000000000000e+02 1.964298896308602878e+02
8.590000000000000000e+02 2.101311782825151226e+02
8.600000000000000000e+02 1.470187199751098319e+02
8.610000000000000000e+02 2.352021171712951855e+02
8.620000000000000000e+02 3.219744006845051558e+02
8.630000000000000000e+02 3.397530659614185993e+02
8.640000000000000000e+02 3.477521498133553450e+02
8.650000000000000000e+02 3.779145024268839279e+02
8.660000000000000000e+02 5.728281489525019197e+02
8.670000000000000000e+02 5.871391469514721848e+02
8.680000000000000000e+02 7.538232066376357352e+02
8.690000000000000000e+02 8.666358440572506652e+02
8.700000000000000000e+02 9.163657986309926855e+02
8.710000000000000000e+02 9.748505226301609810e+02
8.720000000000000000e+02 1.016991564820577992e+03
8.730000000000000000e+02 1.109551240199122276e+03
8.740000000000000000e+02 1.341331949595525884e+03
8.750000000000000000e+02 1.425636559012653606e+03
8.760000000000000000e+02 1.470237514623521292e+03
8.770000000000000000e+02 1.530734941713336639e+03
8.780000000000000000e+02 1.600477213441193726e+03
8.790000000000000000e+02 1.653973028002489400e+03
8.800000000000000000e+02 1.651082789670192824e+03
8.810000000000000000e+02 1.695647909977184327e+03
8.820000000000000000e+02 1.665589720447946775e+03
8.830000000000000000e+02 1.690778592615639354e+03
8.840000000000000000e+02 1.605573614187921976e+03
8.850000000000000000e+02 1.551852357527999857e+03
8.860000000000000000e+02 1.588632474797764871e+03
8.870000000000000000e+02 1.446514219456540104e+03
8.880000000000000000e+02 1.325574503940270461e+03
8.890000000000000000e+02 1.245033934038581947e+03
8.900000000000000000e+02 1.243323286869943786e+03
8.910000000000000000e+02 1.123890146827043282e+03
8.920000000000000000e+02 9.787895708774109380e+02
8.930000000000000000e+02 8.730222022401987942e+02
8.940000000000000000e+02 7.695176644131048533e+02
8.950000000000000000e+02 7.600577183571859905e+02
8.960000000000000000e+02 5.674763812279585409e+02
8.970000000000000000e+02 4.720199028832176396e+02
8.980000000000000000e+02 4.366669395146230954e+02
8.990000000000000000e+02 4.264565012652975611e+02
9.000000000000000000e+02 4.193562018253474548e+02
9.010000000000000000e+02 3.684964529765579186e+02
9.020000000000000000e+02 2.452938632856244965e+02
9.030000000000000000e+02 2.033786196639708237e+02
9.040000000000000000e+02 1.797311194358014745e+02
9.050000000000000000e+02 2.225444537855219949e+02
9.060000000000000000e+02 1.074678963327114047e+02
9.070000000000000000e+02 6.042597808338494758e+01
9.080000000000000000e+02 8.992949375440785786e+01
9.090000000000000000e+02 3.181057644679459528e+01
9.100000000000000000e+02 1.094863178365510947e+01
9.110000000000000000e+02 4.933046701368743925e+01
9.120000000000000000e+02 8.884681539514586746e+01
9.130000000000000000e+02 5.802833283551195365e+01
9.140000000000000000e+02 4.783738103484046178e+01
9.150000000000000000e+02 5.037393507156053118e+01
9.160000000000000000e+02 2.926987299937773557e+01
9.170000000000000000e+02 1.775547978432178553e+01
9.180000000000000000e+02 1.787949313669385276e+01
9.190000000000000000e+02 1.235188354117400280e+02
9.200000000000000000e+02 7.912544250311006522e+01
9.210000000000000000e+02 2.514902654013678784e+01
9.220000000000000000e+02 6.986529358224376551e+01
9.230000000000000000e+02 7.911978665836883806e+01
9.240000000000000000e+02 7.342663361970235059e+00
9.250000000000000000e+02 6.342831761667916624e+00
9.260000000000000000e+02 1.566976298693209912e+01
9.270000000000000000e+02 8.590483824102825849e+00
9.280000000000000000e+02 3.515733526861677394e+00
9.290000000000000000e+02 3.259189263223400701e+01
9.300000000000000000e+02 1.321253944679515939e+02
9.310000000000000000e+02 1.357359211781817123e+02
9.320000000000000000e+02 7.366331669778037394e+01
9.330000000000000000e+02 1.581158647168631148e+02
9.340000000000000000e+02 1.360104998133169545e+02
9.350000000000000000e+02 2.013713744866204820e+02
9.360000000000000000e+02 1.713586680356781073e+02
9.370000000000000000e+02 1.224616285773545457e+02
9.380000000000000000e+02 9.672521699232522963e+01
9.390000000000000000e+02 1.282712679527075181e+02
9.400000000000000000e+02 1.734687098299474712e+02
9.410000000000000000e+02 1.274488650072596414e+02
9.420000000000000000e+02 1.848304917859391026e+02
9.430000000000000000e+02 2.780270624844453664e+02
9.440000000000000000e+02 1.581995293715023649e+02
9.450000000000000000e+02 2.113978561501710089e+02
9.460000000000000000e+02 2.612625437163010815e+02
9.470000000000000000e+02 2.498822673719138834e+02
9.480000000000000000e+02 2.846461091474791942e+02
9.490000000000000000e+02 2.857441648900870632e+02
9.500000000000000000e+02 3.061802360713542157e+02
9.510000000000000000e+02 3.175920996681183510e+02
9.520000000000000000e+02 3.325134021157436450e+02
9.530000000000000000e+02 3.604591369010578887e+02
9.540000000000000000e+02 3.357759024891101944e+02
9.550000000000000000e+02 3.140057930304925549e+02
9.560000000000000000e+02 3.531903810412784992e+02
9.570000000000000000e+02 3.604023806471680018e+02
9.580000000000000000e+02 3.168560973864343850e+02
9.590000000000000000e+02 3.757182417548199851e+02
9.600000000000000000e+02 3.834803643642391080e+02
9.610000000000000000e+02 3.537910589296837429e+02
9.620000000000000000e+02 3.884350109520811429e+02
9.630000000000000000e+02 4.109727704686874858e+02
9.640000000000000000e+02 3.884797764779083877e+02
9.650000000000000000e+02 4.145063289359051737e+02
9.660000000000000000e+02 4.236469801534626640e+02
9.670000000000000000e+02 4.474527203484754523e+02
9.680000000000000000e+02 4.026266258245179301e+02
9.690000000000000000e+02 4.382096598506846021e+02
9.700000000000000000e+02 4.310204289359043628e+02
9.710000000000000000e+02 4.006765400124456278e+02
9.720000000000000000e+02 3.844775805889655089e+02
9.730000000000000000e+02 3.453417409458615452e+02
9.740000000000000000e+02 3.789589073221337117e+02
9.750000000000000000e+02 4.125223303193683932e+02
9.760000000000000000e+02 4.114742442439335832e+02
9.770000000000000000e+02 2.987091363202613934e+02
9.780000000000000000e+02 3.068902470649219936e+02
9.790000000000000000e+02 3.119353944202472917e+02
9.800000000000000000e+02 2.809720163036697045e+02
9.810000000000000000e+02 3.182447761667701798e+02
9.820000000000000000e+02 3.064105889027181320e+02
9.830000000000000000e+02 2.494570041070316790e+02
9.840000000000000000e+02 3.249075445135870268e+02
9.850000000000000000e+02 2.718277482887360179e+02
9.860000000000000000e+02 2.363330500103713234e+02
9.870000000000000000e+02 2.160298799834049248e+02
9.880000000000000000e+02 1.834300517112622515e+02
9.890000000000000000e+02 1.801405547604236688e+02
9.900000000000000000e+02 2.036942268823874542e+02
9.910000000000000000e+02 1.557491357394702902e+02
9.920000000000000000e+02 9.389183620489390592e+01
9.930000000000000000e+02 1.095115940261345884e+02
9.940000000000000000e+02 1.247815436216555867e+02
9.950000000000000000e+02 1.608840879303207601e+02
9.960000000000000000e+02 1.056674714996921267e+02
9.970000000000000000e+02 4.644929417962931950e+01
9.980000000000000000e+02 6.882611273330616086e+01
9.990000000000000000e+02 1.362359515245798214e+01
1.000000000000000000e+03 7.673450965359896259e+01
1.001000000000000000e+03 5.822699273859022639e+01
1.002000000000000000e+03 5.262964311203326417e+01
1.003000000000000000e+03 3.181280437759384583e+01
1.004000000000000000e+03 6.971077925311463730e+01
1.005000000000000000e+03 8.913160493775974658e+01
1.006000000000000000e+03 5.610022434782658252e+01
1.007000000000000000e+03 6.886015858921169297e+01
1.008000000000000000e+03 8.107597323651329191e+01
1.009000000000000000e+03 1.094004248132764019e+02
1.010000000000000000e+03 2.364190717842321732e+01
1.011000000000000000e+03 3.765076772821522155e+01
1.012000000000000000e+03 1.401168435684653559e+02
1.013000000000000000e+03 1.668731977178428281e+02
1.014000000000000000e+03 2.588787962655628121e+02
1.015000000000000000e+03 3.765946838174273239e+02
1.016000000000000000e+03 3.095081377593343177e+02
1.017000000000000000e+03 3.746140468879667651e+02
1.018000000000000000e+03 3.811784672199179340e+02
1.019000000000000000e+03 4.225253161825752954e+02
1.020000000000000000e+03 5.832147039419037355e+02
1.021000000000000000e+03 6.464663207468875044e+02
1.022000000000000000e+03 7.047283705394157778e+02
1.023000000000000000e+03 7.979071995850623580e+02
1.024000000000000000e+03 8.662798692946067831e+02
1.025000000000000000e+03 9.762643481327817199e+02
1.026000000000000000e+03 9.391483269709553952e+02
1.027000000000000000e+03 9.547677333333322167e+02
1.028000000000000000e+03 1.133128091286315566e+03
1.029000000000000000e+03 1.153642165975097669e+03
1.030000000000000000e+03 1.192725622406633875e+03
1.031000000000000000e+03 1.235236253112032955e+03
1.032000000000000000e+03 1.201646460580908069e+03
1.033000000000000000e+03 1.183085991701232615e+03
1.034000000000000000e+03 1.223953307053946446e+03
1.035000000000000000e+03 1.037253236024841272e+03
1.036000000000000000e+03 1.043561943983403125e+03
1.037000000000000000e+03 1.047067302904564485e+03
1.038000000000000000e+03 1.088306533195021302e+03
1.039000000000000000e+03 9.820385695020589765e+02
1.040000000000000000e+03 8.290385029045719421e+02
1.041000000000000000e+03 7.655206585062244358e+02
1.042000000000000000e+03 7.416112601659735901e+02
1.043000000000000000e+03 6.953855136929399805e+02
1.044000000000000000e+03 6.197204265560168324e+02
1.045000000000000000e+03 6.086428908713677401e+02
1.046000000000000000e+03 5.309625842323588358e+02
1.047000000000000000e+03 4.772283594202920654e+02
1.048000000000000000e+03 4.609334742738588488e+02
1.049000000000000000e+03 4.216661597510328647e+02
1.050000000000000000e+03 4.226104373444003386e+02
1.051000000000000000e+03 4.249370427385940729e+02
1.052000000000000000e+03 3.025030721991674909e+02
1.053000000000000000e+03 2.805414292531092428e+02
1.054000000000000000e+03 2.219360985477209738e+02
1.055000000000000000e+03 2.300169641078837515e+02
1.056000000000000000e+03 2.852043043478311120e+02
1.057000000000000000e+03 2.418082074688865362e+02
1.058000000000000000e+03 1.675641975103747257e+02
1.059000000000000000e+03 1.178566892946043083e+02
1.060000000000000000e+03 8.895884215767654268e+01
1.061000000000000000e+03 8.166168526971100050e+01
1.062000000000000000e+03 8.807319815352838077e+01
1.063000000000000000e+03 2.032970612033223858e+02
1.064000000000000000e+03 1.510901159420373574e+02
1.065000000000000000e+03 2.296826381742838663e+01
1.066000000000000000e+03 4.522231746888446935e+01
1.067000000000000000e+03 8.027583024896291874e+01
1.068000000000000000e+03 3.593968016597920467e+01
1.069000000000000000e+03 8.041838033195322311e+00
1.070000000000000000e+03 4.591220578838516531e+01
1.071000000000000000e+03 6.002436962656183539e+01
1.072000000000000000e+03 4.477892869564974454e+00
1.073000000000000000e+03 3.297546937759202734e+01
1.074000000000000000e+03 2.074689560165205293e+01
1.075000000000000000e+03 1.099216817427378601e+02
1.076000000000000000e+03 4.469167465838533104e+01
1.077000000000000000e+03 3.687983960580950793e+01
1.078000000000000000e+03 6.787846612033300531e+00
1.079000000000000000e+03 1.229003819087147598e+01
1.080000000000000000e+03 2.611244060788774846e+01
1.081000000000000000e+03 1.001247523651440190e+02
1.082000000000000000e+03 2.435519838174494112e+01
1.083000000000000000e+03 5.293617319502406104e+00
1.084000000000000000e+03 7.035861692946179247e+00
1.085000000000000000e+03 5.189401056016526326e+01
1.086000000000000000e+03 2.945550949792452400e+01
1.087000000000000000e+03 4.178285943983873096e+01
1.088000000000000000e+03 1.048646589419036275e+02
1.089000000000000000e+03 1.105456357261421800e+02
1.090000000000000000e+03 3.846428999999863407e+01
1.091000000000000000e+03 3.013103775933609185e+01
1.092000000000000000e+03 2.995877605809172550e+01
1.093000000000000000e+03 1.741653975155280776e+01
1.094000000000000000e+03 9.328473168050524578e+01
1.095000000000000000e+03 6.906137373444636296e+01
1.096000000000000000e+03 4.657094053941893463e+01
1.097000000000000000e+03 6.347420101449381491e+01
1.098000000000000000e+03 8.608312116182258933e+01
1.099000000000000000e+03 1.172350912863055754e+02
1.100000000000000000e+03 1.456146477178425869e+02
1.101000000000000000e+03 1.579769358921169271e+02
1.102000000000000000e+03 1.523245875518723835e+02
1.103000000000000000e+03 4.416627190871411557e+01
1.104000000000000000e+03 2.476814717842566793e+01
1.105000000000000000e+03 1.272097619461702891e+02
1.106000000000000000e+03 1.074336385892150076e+02
1.107000000000000000e+03 7.482847410788519937e+01
1.108000000000000000e+03 1.132789954356866104e+02
1.109000000000000000e+03 1.112160062240674279e+02
1.110000000000000000e+03 8.770105356846450206e+01
1.111000000000000000e+03 7.287282304979180481e+01
1.112000000000000000e+03 8.228573645227572797e+01
1.113000000000000000e+03 1.500100428571418547e+02
1.114000000000000000e+03 1.490489933609956097e+02
1.115000000000000000e+03 1.601595838174274604e+02
1.116000000000000000e+03 9.706310074689409362e+01
1.117000000000000000e+03 1.330984796273311588e+02
1.118000000000000000e+03 1.488217304356644490e+02
1.119000000000000000e+03 4.927988678422821067e+01
1.120000000000000000e+03 1.151116628630701086e+02
1.121000000000000000e+03 1.362476695020774002e+02
1.122000000000000000e+03 2.421497999999945421e+02
1.123000000000000000e+03 1.808319145228251443e+02
1.124000000000000000e+03 1.359736236514518168e+02
1.125000000000000000e+03 1.725725560165977015e+02
1.126000000000000000e+03 1.339894179875575162e+02
1.127000000000000000e+03 5.035739624481357168e+01
1.128000000000000000e+03 5.316905456432030519e+01
1.129000000000000000e+03 1.133828522821582396e+02
1.130000000000000000e+03 1.254468178423230427e+02
1.131000000000000000e+03 1.155917462655575179e+02
1.132000000000000000e+03 4.932628912863113868e+01
1.133000000000000000e+03 1.471946568464700249e+02
1.134000000000000000e+03 6.191391861283619136e+01
1.135000000000000000e+03 9.319752966805594951e+01
1.136000000000000000e+03 1.261773680497921362e+02
1.137000000000000000e+03 6.195418329875970898e+01
1.138000000000000000e+03 1.077184875518702256e+02
1.139000000000000000e+03 2.035283829875494916e+02
1.140000000000000000e+03 1.716823211618281562e+02
1.141000000000000000e+03 1.418260746887966661e+02
1.142000000000000000e+03 1.390794086956498745e+02
1.143000000000000000e+03 1.084557153526961883e+02
1.144000000000000000e+03 1.356982883817428274e+02
1.145000000000000000e+03 7.842187510373193504e+01
1.146000000000000000e+03 1.035742992546574754e+02
1.147000000000000000e+03 3.181852107884458292e+01
1.148000000000000000e+03 4.032281938589384396e+01
1.149000000000000000e+03 1.001995170124491921e+02
1.150000000000000000e+03 8.502497688796849218e+01
1.151000000000000000e+03 8.512924103519654295e+01
1.152000000000000000e+03 1.368702491701255042e+02
1.153000000000000000e+03 1.516334427385907873e+02
1.154000000000000000e+03 1.567242751037367441e+02
1.155000000000000000e+03 9.848456730290264716e+01
1.156000000000000000e+03 4.495363410788258562e+01
1.157000000000000000e+03 6.929115261410527182e+01
1.158000000000000000e+03 2.521672965145357992e+01
1.159000000000000000e+03 6.004824439834933969e+01
1.160000000000000000e+03 7.499090699170287166e+01
1.161000000000000000e+03 7.172932790457000607e+00
1.162000000000000000e+03 5.332176218879971685e+01
1.163000000000000000e+03 1.427592012422354912e+02
1.164000000000000000e+03 2.236595556017115172e+01
1.165000000000000000e+03 1.282871000000000095e+02
1.166000000000000000e+03 1.035515419087183346e+02
1.167000000000000000e+03 2.048735223602448059e+02
1.168000000000000000e+03 1.546985288381771113e+02
1.169000000000000000e+03 2.587499781742555882e+01
1.170000000000000000e+03 3.606884439834193756e+01
1.171000000000000000e+03 5.687757927536691938e+01
1.172000000000000000e+03 6.761520448132996819e+01
1.173000000000000000e+03 1.826795004149429076e+02
1.174000000000000000e+03 1.730140352697171124e+02
1.175000000000000000e+03 6.630292960662606561e+01
1.176000000000000000e+03 8.643961576763729227e+01
1.177000000000000000e+03 1.695409155601621194e+02
1.178000000000000000e+03 7.356667593360745627e+01
1.179000000000000000e+03 8.579962459627431315e+01
1.180000000000000000e+03 1.313472796680446777e+02
1.181000000000000000e+03 3.569374780083607845e+01
1.182000000000000000e+03 9.701892315351905438e+00
1.183000000000000000e+03 7.489443651452684492e+01
1.184000000000000000e+03 1.010744088796743512e+02
1.185000000000000000e+03 5.430732831950203376e+01
1.186000000000000000e+03 9.834880763485676880e+01
1.187000000000000000e+03 1.862090348547756946e+02
1.188000000000000000e+03 1.683155975103765627e+02
1.189000000000000000e+03 9.877223626556022396e+01
1.190000000000000000e+03 1.422484095435726772e+02
1.191000000000000000e+03 1.734952435684635077e+02
1.192000000000000000e+03 1.910967983402485970e+02
1.193000000000000000e+03 2.029566601659749949e+02
1.194000000000000000e+03 1.875183122406617429e+02
1.195000000000000000e+03 1.514853294605835856e+02
1.196000000000000000e+03 9.719081480331283274e+01
1.197000000000000000e+03 7.273948157677045856e+01
1.198000000000000000e+03 1.738048439833962107e+02
1.199000000000000000e+03 1.994548846473034587e+02
1.200000000000000000e+03 1.532973782608682427e+02
1.201000000000000000e+03 1.512796168049794971e+02
1.202000000000000000e+03 7.622023354772281323e+01
1.203000000000000000e+03 8.033545632780111134e+01
1.204000000000000000e+03 1.772254337474233807e+02
1.205000000000000000e+03 1.779211427385936872e+02
1.206000000000000000e+03 1.283488448132779922e+02
1.207000000000000000e+03 1.491626912863095527e+02
1.208000000000000000e+03 1.970208619047639900e+02
1.209000000000000000e+03 1.972127394190895302e+02
1.210000000000000000e+03 1.429898400414935793e+02
1.211000000000000000e+03 1.210917780290389913e+02
1.212000000000000000e+03 2.761151143153875154e+01
1.213000000000000000e+03 7.288972232365138382e+01
1.214000000000000000e+03 3.487980792530760255e+01
1.215000000000000000e+03 5.845774601659503134e+01
1.216000000000000000e+03 5.986044124481482243e+01
1.217000000000000000e+03 3.915380319502017414e+01
1.218000000000000000e+03 8.537541838175039288e+01
1.219000000000000000e+03 1.156037209336129621e+02
1.220000000000000000e+03 1.063501607883809754e+02
1.221000000000000000e+03 1.587440087136931481e+02
1.222000000000000000e+03 1.269456713693044634e+02
1.223000000000000000e+03 3.991891713692920263e+01
1.224000000000000000e+03 5.632674655601568503e+01
1.225000000000000000e+03 1.288610575569357053e+01
1.226000000000000000e+03 8.640839236513880905e+01
1.227000000000000000e+03 1.178786145228215219e+02
1.228000000000000000e+03 1.693185024896314417e+02
1.229000000000000000e+03 1.625268687370618181e+02
1.230000000000000000e+03 1.024300278838184397e+02
1.231000000000000000e+03 6.960582688796590389e+01
1.232000000000000000e+03 1.266165533195138124e+02
1.233000000000000000e+03 1.748992152489699663e+02
1.234000000000000000e+03 3.585471549792453061e+01
1.235000000000000000e+03 2.769681748963141388e+01
1.236000000000000000e+03 7.723856018672179857e+01
1.237000000000000000e+03 7.604084645962707611e+01
1.238000000000000000e+03 1.053738742738598546e+02
1.239000000000000000e+03 9.743497112033176677e+01
1.240000000000000000e+03 6.784094182572786735e+01
1.241000000000000000e+03 1.750314318840558059e+01
1.242000000000000000e+03 5.352423457885215896e+01
1.243000000000000000e+03 5.639555282158326577e+01
1.244000000000000000e+03 2.768648912863022105e+01
1.245000000000000000e+03 7.202936630705515597e+01
1.246000000000000000e+03 6.815697560166144342e+01
1.247000000000000000e+03 5.623630800829864995e+01
1.248000000000000000e+03 6.496950000000110492e+01
1.249000000000000000e+03 7.880072456430772831e+01
1.250000000000000000e+03 1.330124584024678924e+01
1.251000000000000000e+03 1.946353912033215039e+01
1.252000000000000000e+03 1.219699780083040395e+02
1.253000000000000000e+03 5.515936004149332916e+01
1.254000000000000000e+03 8.307392248962470660e+01
1.255000000000000000e+03 8.501377012447862569e+01
1.256000000000000000e+03 6.533745580912993489e+01
1.257000000000000000e+03 1.208783069709479605e+02
1.258000000000000000e+03 8.444865437759085580e+01
1.259000000000000000e+03 5.797288441909461021e+00
1.260000000000000000e+03 1.019746582987467036e+02
1.261000000000000000e+03 1.694837701244826746e+02
1.262000000000000000e+03 1.294402726141076414e+02
1.263000000000000000e+03 1.367725585062247546e+02
1.264000000000000000e+03 1.566698257261386971e+02
1.265000000000000000e+03 2.130395900414940513e+02
1.266000000000000000e+03 1.596121840579646118e+02
1.267000000000000000e+03 1.064588742946083357e+02
1.268000000000000000e+03 7.603166526970990446e+01
1.269000000000000000e+03 4.252196956431360064e+01
1.270000000000000000e+03 3.781022024844648399e+01
1.271000000000000000e+03 1.215461297510328507e+02
1.272000000000000000e+03 1.416599921161803763e+02
1.273000000000000000e+03 6.135470663901251953e+01
1.274000000000000000e+03 1.259869260869603096e+02
1.275000000000000000e+03 1.054394298755188970e+02
1.276000000000000000e+03 1.578425829875464501e+02
1.277000000000000000e+03 6.788812977178608321e+01
1.278000000000000000e+03 9.121664473029065334e+01
1.279000000000000000e+03 4.151252448132566286e+01
1.280000000000000000e+03 2.941999946058037807e+01
1.281000000000000000e+03 8.220252804978865413e+01
1.282000000000000000e+03 1.094941726141078391e+02
1.283000000000000000e+03 1.260463186722008970e+02
1.284000000000000000e+03 1.159103713692974509e+02
1.285000000000000000e+03 1.447725128630682434e+02
1.286000000000000000e+03 1.749218020746884008e+02
1.287000000000000000e+03 1.704197858921058923e+02
1.288000000000000000e+03 2.091043124481388702e+02
1.289000000000000000e+03 1.175761506224069706e+02
1.290000000000000000e+03 1.253688612448074480e+02
1.291000000000000000e+03 3.549874269709758323e+01
1.292000000000000000e+03 5.517228192945972864e+01
1.293000000000000000e+03 1.260742792531127492e+02
1.294000000000000000e+03 4.332678655601886675e+01
1.295000000000000000e+03 1.096144633954421010e+01
1.296000000000000000e+03 6.884627817427834806e+00
1.297000000000000000e+03 5.300028020747855351e+01
1.298000000000000000e+03 1.261664568464686340e+02
1.299000000000000000e+03 8.722107018633536768e+01
1.300000000000000000e+03 2.829371858921275518e+01
1.301000000000000000e+03 6.077262912862435229e+01
1.302000000000000000e+03 1.140046431535257199e+02
1.303000000000000000e+03 1.039032761904738749e+02
1.304000000000000000e+03 1.095059091286220010e+01
1.305000000000000000e+03 3.682945082986380125e+00
1.306000000000000000e+03 2.898876875518659801e+01
1.307000000000000000e+03 1.583262203319447003e+01
1.308000000000000000e+03 6.377248195023771160e+00
1.309000000000000000e+03 0.000000000000000000e+00
1.310000000000000000e+03 0.000000000000000000e+00
1.311000000000000000e+03 0.000000000000000000e+00
1.312000000000000000e+03 0.000000000000000000e+00
1.313000000000000000e+03 0.000000000000000000e+00
1.314000000000000000e+03 0.000000000000000000e+00
1.315000000000000000e+03 0.000000000000000000e+00
1.316000000000000000e+03 0.000000000000000000e+00
1.317000000000000000e+03 0.000000000000000000e+00
1.318000000000000000e+03 0.000000000000000000e+00
1.319000000000000000e+03 0.000000000000000000e+00
1.320000000000000000e+03 0.000000000000000000e+00
1.321000000000000000e+03 0.000000000000000000e+00
1.322000000000000000e+03 0.000000000000000000e+00
1.323000000000000000e+03 0.000000000000000000e+00
1.324000000000000000e+03 0.000000000000000000e+00
1.325000000000000000e+03 0.000000000000000000e+00
1.326000000000000000e+03 0.000000000000000000e+00
1.327000000000000000e+03 0.000000000000000000e+00
1.328000000000000000e+03 0.000000000000000000e+00
1.329000000000000000e+03 0.000000000000000000e+00
1.330000000000000000e+03 0.000000000000000000e+00
1.331000000000000000e+03 0.000000000000000000e+00
1.332000000000000000e+03 0.000000000000000000e+00
1.333000000000000000e+03 0.000000000000000000e+00
1.334000000000000000e+03 0.000000000000000000e+00
1.335000000000000000e+03 0.000000000000000000e+00
1.336000000000000000e+03 0.000000000000000000e+00
1.337000000000000000e+03 0.000000000000000000e+00
1.338000000000000000e+03 0.000000000000000000e+00
1.339000000000000000e+03 0.000000000000000000e+00
1.340000000000000000e+03 0.000000000000000000e+00
1.341000000000000000e+03 0.000000000000000000e+00
1.342000000000000000e+03 0.000000000000000000e+00
1.343000000000000000e+03 0.000000000000000000e+00
1.344000000000000000e+03 0.000000000000000000e+00
1.345000000000000000e+03 0.000000000000000000e+00
1.346000000000000000e+03 0.000000000000000000e+00
1.347000000000000000e+03 0.000000000000000000e+00
1.348000000000000000e+03 0.000000000000000000e+00
1.349000000000000000e+03 0.000000000000000000e+00
1.350000000000000000e+03 0.000000000000000000e+00
1.351000000000000000e+03 0.000000000000000000e+00
1.352000000000000000e+03 0.000000000000000000e+00
1.353000000000000000e+03 0.000000000000000000e+00
1.354000000000000000e+03 0.000000000000000000e+00
1.355000000000000000e+03 0.000000000000000000e+00
1.356000000000000000e+03 0.000000000000000000e+00
1.357000000000000000e+03 0.000000000000000000e+00
1.358000000000000000e+03 0.000000000000000000e+00
1.359000000000000000e+03 0.000000000000000000e+00
1.360000000000000000e+03 0.000000000000000000e+00
1.361000000000000000e+03 0.000000000000000000e+00
1.362000000000000000e+03 0.000000000000000000e+00
1.363000000000000000e+03 0.000000000000000000e+00
1.364000000000000000e+03 0.000000000000000000e+00
1.365000000000000000e+03 0.000000000000000000e+00
1.366000000000000000e+03 0.000000000000000000e+00
1.367000000000000000e+03 0.000000000000000000e+00
1.368000000000000000e+03 0.000000000000000000e+00
1.369000000000000000e+03 0.000000000000000000e+00
1.370000000000000000e+03 0.000000000000000000e+00
1.371000000000000000e+03 0.000000000000000000e+00
1.372000000000000000e+03 0.000000000000000000e+00
1.373000000000000000e+03 0.000000000000000000e+00
1.374000000000000000e+03 0.000000000000000000e+00
1.375000000000000000e+03 0.000000000000000000e+00
1.376000000000000000e+03 0.000000000000000000e+00
1.377000000000000000e+03 0.000000000000000000e+00
1.378000000000000000e+03 0.000000000000000000e+00
1.379000000000000000e+03 0.000000000000000000e+00
1.380000000000000000e+03 0.000000000000000000e+00
1.381000000000000000e+03 0.000000000000000000e+00
1.382000000000000000e+03 0.000000000000000000e+00
1.383000000000000000e+03 0.000000000000000000e+00
1.384000000000000000e+03 0.000000000000000000e+00
1.385000000000000000e+03 0.000000000000000000e+00
1.386000000000000000e+03 0.000000000000000000e+00
1.387000000000000000e+03 0.000000000000000000e+00
1.388000000000000000e+03 0.000000000000000000e+00
1.389000000000000000e+03 0.000000000000000000e+00
1.390000000000000000e+03 0.000000000000000000e+00
1.391000000000000000e+03 0.000000000000000000e+00
1.392000000000000000e+03 0.000000000000000000e+00
1.393000000000000000e+03 0.000000000000000000e+00
1.394000000000000000e+03 0.000000000000000000e+00
1.395000000000000000e+03 0.000000000000000000e+00
1.396000000000000000e+03 0.000000000000000000e+00
1.397000000000000000e+03 0.000000000000000000e+00
1.398000000000000000e+03 0.000000000000000000e+00
1.399000000000000000e+03 0.000000000000000000e+00
1.400000000000000000e+03 0.000000000000000000e+00
1.401000000000000000e+03 0.000000000000000000e+00
1.402000000000000000e+03 0.000000000000000000e+00
1.403000000000000000e+03 0.000000000000000000e+00
1.404000000000000000e+03 0.000000000000000000e+00
1.405000000000000000e+03 0.000000000000000000e+00
1.406000000000000000e+03 0.000000000000000000e+00
1.407000000000000000e+03 0.000000000000000000e+00
1.408000000000000000e+03 0.000000000000000000e+00
1.409000000000000000e+03 0.000000000000000000e+00
1.410000000000000000e+03 0.000000000000000000e+00
1.411000000000000000e+03 0.000000000000000000e+00
1.412000000000000000e+03 0.000000000000000000e+00
1.413000000000000000e+03 0.000000000000000000e+00
1.414000000000000000e+03 0.000000000000000000e+00
1.415000000000000000e+03 0.000000000000000000e+00
1.416000000000000000e+03 0.000000000000000000e+00
1.417000000000000000e+03 0.000000000000000000e+00
1.418000000000000000e+03 0.000000000000000000e+00
1.419000000000000000e+03 0.000000000000000000e+00
1.420000000000000000e+03 0.000000000000000000e+00
1.421000000000000000e+03 0.000000000000000000e+00
1.422000000000000000e+03 0.000000000000000000e+00
1.423000000000000000e+03 0.000000000000000000e+00
1.424000000000000000e+03 0.000000000000000000e+00
1.425000000000000000e+03 0.000000000000000000e+00
1.426000000000000000e+03 0.000000000000000000e+00
1.427000000000000000e+03 0.000000000000000000e+00
1.428000000000000000e+03 0.000000000000000000e+00
1.429000000000000000e+03 0.000000000000000000e+00
1.430000000000000000e+03 0.000000000000000000e+00
1.431000000000000000e+03 0.000000000000000000e+00
1.432000000000000000e+03 0.000000000000000000e+00
1.433000000000000000e+03 0.000000000000000000e+00
1.434000000000000000e+03 0.000000000000000000e+00
1.435000000000000000e+03 0.000000000000000000e+00
1.436000000000000000e+03 0.000000000000000000e+00
1.437000000000000000e+03 0.000000000000000000e+00
1.438000000000000000e+03 0.000000000000000000e+00
1.439000000000000000e+03 0.000000000000000000e+00
1.440000000000000000e+03 0.000000000000000000e+00
1.441000000000000000e+03 0.000000000000000000e+00
1.442000000000000000e+03 0.000000000000000000e+00
1.443000000000000000e+03 0.000000000000000000e+00
1.444000000000000000e+03 0.000000000000000000e+00
1.445000000000000000e+03 0.000000000000000000e+00
1.446000000000000000e+03 0.000000000000000000e+00
1.447000000000000000e+03 0.000000000000000000e+00
1.448000000000000000e+03 0.000000000000000000e+00
1.449000000000000000e+03 0.000000000000000000e+00
1.450000000000000000e+03 0.000000000000000000e+00
1.451000000000000000e+03 0.000000000000000000e+00
1.452000000000000000e+03 0.000000000000000000e+00
1.453000000000000000e+03 0.000000000000000000e+00
1.454000000000000000e+03 0.000000000000000000e+00
1.455000000000000000e+03 0.000000000000000000e+00
1.456000000000000000e+03 0.000000000000000000e+00
1.457000000000000000e+03 0.000000000000000000e+00
1.458000000000000000e+03 0.000000000000000000e+00
1.459000000000000000e+03 0.000000000000000000e+00
1.460000000000000000e+03 0.000000000000000000e+00
1.461000000000000000e+03 0.000000000000000000e+00
1.462000000000000000e+03 0.000000000000000000e+00
1.463000000000000000e+03 0.000000000000000000e+00
1.464000000000000000e+03 0.000000000000000000e+00
1.465000000000000000e+03 0.000000000000000000e+00
1.466000000000000000e+03 0.000000000000000000e+00
1.467000000000000000e+03 0.000000000000000000e+00
1.468000000000000000e+03 0.000000000000000000e+00
1.469000000000000000e+03 0.000000000000000000e+00
1.470000000000000000e+03 0.000000000000000000e+00
1.471000000000000000e+03 0.000000000000000000e+00
1.472000000000000000e+03 0.000000000000000000e+00
1.473000000000000000e+03 0.000000000000000000e+00
1.474000000000000000e+03 0.000000000000000000e+00
1.475000000000000000e+03 0.000000000000000000e+00
1.476000000000000000e+03 0.000000000000000000e+00
1.477000000000000000e+03 0.000000000000000000e+00
1.478000000000000000e+03 0.000000000000000000e+00
1.479000000000000000e+03 0.000000000000000000e+00
1.480000000000000000e+03 0.000000000000000000e+00
1.481000000000000000e+03 0.000000000000000000e+00
1.482000000000000000e+03 0.000000000000000000e+00
1.483000000000000000e+03 0.000000000000000000e+00
1.484000000000000000e+03 0.000000000000000000e+00
1.485000000000000000e+03 0.000000000000000000e+00
1.486000000000000000e+03 0.000000000000000000e+00
1.487000000000000000e+03 0.000000000000000000e+00
1.488000000000000000e+03 0.000000000000000000e+00
1.489000000000000000e+03 0.000000000000000000e+00
1.490000000000000000e+03 0.000000000000000000e+00
1.491000000000000000e+03 0.000000000000000000e+00
1.492000000000000000e+03 0.000000000000000000e+00
1.493000000000000000e+03 0.000000000000000000e+00
1.494000000000000000e+03 0.000000000000000000e+00
1.495000000000000000e+03 0.000000000000000000e+00
1.496000000000000000e+03 0.000000000000000000e+00
1.497000000000000000e+03 0.000000000000000000e+00
1.498000000000000000e+03 0.000000000000000000e+00
1.499000000000000000e+03 0.000000000000000000e+00
1.500000000000000000e+03 0.000000000000000000e+00
