1.010000000000000000e+02 0.000000000000000000e+00
1.020000000000000000e+02 0.000000000000000000e+00
1.030000000000000000e+02 0.000000000000000000e+00
1.040000000000000000e+02 0.000000000000000000e+00
1.050000000000000000e+02 0.000000000000000000e+00
1.060000000000000000e+02 0.000000000000000000e+00
1.070000000000000000e+02 0.000000000000000000e+00
1.080000000000000000e+02 0.000000000000000000e+00
1.090000000000000000e+02 0.000000000000000000e+00
1.100000000000000000e+02 0.000000000000000000e+00
1.110000000000000000e+02 0.000000000000000000e+00
1.120000000000000000e+02 0.000000000000000000e+00
1.130000000000000000e+02 0.000000000000000000e+00
1.140000000000000000e+02 0.000000000000000000e+00
1.150000000000000000e+02 0.000000000000000000e+00
1.160000000000000000e+02 0.000000000000000000e+00
1.170000000000000000e+02 0.000000000000000000e+00
1.180000000000000000e+02 0.000000000000000000e+00
1.190000000000000000e+02 0.000000000000000000e+00
1.200000000000000000e+02 0.000000000000000000e+00
1.210000000000000000e+02 0.000000000000000000e+00
1.220000000000000000e+02 0.000000000000000000e+00
1.230000000000000000e+02 0.000000000000000000e+00
1.240000000000000000e+02 0.000000000000000000e+00
1.250000000000000000e+02 0.000000000000000000e+00
1.260000000000000000e+02 0.000000000000000000e+00
1.270000000000000000e+02 0.000000000000000000e+00
1.280000000000000000e+02 0.000000000000000000e+00
1.290000000000000000e+02 0.000000000000000000e+00
1.300000000000000000e+02 0.000000000000000000e+00
1.310000000000000000e+02 0.000000000000000000e+00
1.320000000000000000e+02 0.000000000000000000e+00
1.330000000000000000e+02 0.000000000000000000e+00
1.340000000000000000e+02 0.000000000000000000e+00
1.350000000000000000e+02 0.000000000000000000e+00
1.360000000000000000e+02 0.000000000000000000e+00
1.370000000000000000e+02 0.000000000000000000e+00
1.380000000000000000e+02 0.000000000000000000e+00
1.390000000000000000e+02 0.000000000000000000e+00
1.400000000000000000e+02 0.000000000000000000e+00
1.410000000000000000e+02 0.000000000000000000e+00
1.420000000000000000e+02 0.000000000000000000e+00
1.430000000000000000e+02 0.000000000000000000e+00
1.440000000000000000e+02 0.000000000000000000e+00
1.450000000000000000e+02 0.000000000000000000e+00
1.460000000000000000e+02 0.000000000000000000e+00
1.470000000000000000e+02 0.000000000000000000e+00
1.480000000000000000e+02 0.000000000000000000e+00
1.490000000000000000e+02 0.000000000000000000e+00
1.500000000000000000e+02 0.000000000000000000e+00
1.510000000000000000e+02 0.000000000000000000e+00
1.520000000000000000e+02 0.000000000000000000e+00
1.530000000000000000e+02 0.000000000000000000e+00
1.540000000000000000e+02 0.000000000000000000e+00
1.550000000000000000e+02 0.000000000000000000e+00
1.560000000000000000e+02 0.000000000000000000e+00
1.570000000000000000e+02 0.000000000000000000e+00
1.580000000000000000e+02 0.000000000000000000e+00
1.590000000000000000e+02 0.000000000000000000e+00
1.600000000000000000e+02 0.000000000000000000e+00
1.610000000000000000e+02 0.000000000000000000e+00
1.620000000000000000e+02 0.000000000000000000e+00
1.630000000000000000e+02 0.000000000000000000e+00
1.640000000000000000e+02 0.000000000000000000e+00
1.650000000000000000e+02 0.000000000000000000e+00
1.660000000000000000e+02 1.101537671644899596e+01
1.670000000000000000e+02 4.648725189172373540e+00
1.680000000000000000e+02 9.563527517734902617e+00
1.690000000000000000e+02 1.525878624974254194e+00
1.700000000000000000e+02 7.130866462878816314e+00
1.710000000000000000e+02 5.528781130263427457e+01
1.720000000000000000e+02 9.991940360298664814e+01
1.730000000000000000e+02 1.467387924097884024e+02
1.740000000000000000e+02 2.170316897531639313e+02
1.750000000000000000e+02 3.093063886330638752e+02
1.760000000000000000e+02 4.062693045209451270e+02
1.770000000000000000e+02 5.148071280647154708e+02
1.780000000000000000e+02 6.817112910599482802e+02
1.790000000000000000e+02 8.781533925756953067e+02
1.800000000000000000e+02 1.066537383239991186e+03
1.810000000000000000e+02 1.287819444306158402e+03
1.820000000000000000e+02 1.535434208462977494e+03
1.830000000000000000e+02 1.814596576851277405e+03
1.840000000000000000e+02 2.143388680564198694e+03
1.850000000000000000e+02 2.546807068035673637e+03
1.860000000000000000e+02 2.982908502800247334e+03
1.870000000000000000e+02 3.490575426260116728e+03
1.880000000000000000e+02 4.099001563161169543e+03
1.890000000000000000e+02 4.799087954158884713e+03
1.900000000000000000e+02 5.530294299315486569e+03
1.910000000000000000e+02 6.366732497199758654e+03
1.920000000000000000e+02 7.264613373366524684e+03
1.930000000000000000e+02 8.145784691829112489e+03
1.940000000000000000e+02 8.998263343289763725e+03
1.950000000000000000e+02 9.789959521468583262e+03
1.960000000000000000e+02 1.046090300560049945e+04
1.970000000000000000e+02 1.092585587844845395e+04
1.980000000000000000e+02 1.102033900850446116e+04
1.990000000000000000e+02 1.080408556730968121e+04
2.000000000000000000e+02 1.030858612943372282e+04
2.010000000000000000e+02 9.571200642605266694e+03
2.020000000000000000e+02 8.670187522298285330e+03
2.030000000000000000e+02 7.777675878655876659e+03
2.040000000000000000e+02 6.812996520224010055e+03
2.050000000000000000e+02 5.879632625388922861e+03
2.060000000000000000e+02 5.094099287077373447e+03
2.070000000000000000e+02 4.463497816842984321e+03
2.080000000000000000e+02 3.865436111595099646e+03
2.090000000000000000e+02 3.349685730553825124e+03
2.100000000000000000e+02 2.942993923683119647e+03
2.110000000000000000e+02 2.600744540966607929e+03
2.120000000000000000e+02 2.288747599460689344e+03
2.130000000000000000e+02 1.995528940481126483e+03
2.140000000000000000e+02 1.744749046048538048e+03
2.150000000000000000e+02 1.559689875337068315e+03
2.160000000000000000e+02 1.372924492741600488e+03
2.170000000000000000e+02 1.205639803775149176e+03
2.180000000000000000e+02 1.069253467952706615e+03
2.190000000000000000e+02 9.584176915180429432e+02
2.200000000000000000e+02 8.540824259282320554e+02
2.210000000000000000e+02 7.224781956855409817e+02
2.220000000000000000e+02 6.404641549263637899e+02
2.230000000000000000e+02 5.907615783447421336e+02
2.240000000000000000e+02 5.114485957477706961e+02
2.250000000000000000e+02 4.684021776809785251e+02
2.260000000000000000e+02 3.998748230657536169e+02
2.270000000000000000e+02 3.319391426793862365e+02
2.280000000000000000e+02 2.946144225264470720e+02
2.290000000000000000e+02 2.650477873055382361e+02
2.300000000000000000e+02 2.387686743260056517e+02
2.310000000000000000e+02 1.964250091267372227e+02
2.320000000000000000e+02 1.538948317983822562e+02
2.330000000000000000e+02 1.439193942762337883e+02
2.340000000000000000e+02 1.150043326695703740e+02
2.350000000000000000e+02 1.040719599875544503e+02
2.360000000000000000e+02 1.004539395395146926e+02
2.370000000000000000e+02 8.573560209085279382e+01
2.380000000000000000e+02 6.215236986724723067e+01
2.390000000000000000e+02 4.727628319850650485e+01
2.400000000000000000e+02 3.408300585770592050e+01
2.410000000000000000e+02 2.453591947106408000e+01
2.420000000000000000e+02 2.594129994399495587e+01
2.430000000000000000e+02 6.642749830740370953e+00
2.440000000000000000e+02 2.003755917859365354e+01
2.450000000000000000e+02 3.448607101431235833e+01
2.460000000000000000e+02 3.134065463596762768e+01
2.470000000000000000e+02 3.703534378344746614e+01
2.480000000000000000e+02 2.744668618958721851e+01
2.490000000000000000e+02 3.596225797967209559e+01
2.500000000000000000e+02 5.600133115927010863e+01
2.510000000000000000e+02 3.937797802738003128e+01
2.520000000000000000e+02 1.782936835718726343e+01
2.530000000000000000e+02 1.718072520116130164e+01
2.540000000000000000e+02 2.764140499066575885e+01
2.550000000000000000e+02 3.270983913503427232e+01
2.560000000000000000e+02 3.436521848403145896e+01
2.570000000000000000e+02 1.860951790085034929e+01
2.580000000000000000e+02 2.376507479983437321e+01
2.590000000000000000e+02 5.711607257984291586e+00
2.600000000000000000e+02 5.482746678904820214e+01
2.610000000000000000e+02 7.116852515660652045e+01
2.620000000000000000e+02 9.203625507985960041e+01
2.630000000000000000e+02 1.262748357602163907e+02
2.640000000000000000e+02 1.658079414436841716e+02
2.650000000000000000e+02 1.919972363410077776e+02
2.660000000000000000e+02 2.123676722879076237e+02
2.670000000000000000e+02 2.425284616884470950e+02
2.680000000000000000e+02 2.937551435386836260e+02
2.690000000000000000e+02 3.638746394523942058e+02
2.700000000000000000e+02 4.196039457581417196e+02
2.710000000000000000e+02 4.733046539514617734e+02
2.720000000000000000e+02 5.227200139805013350e+02
2.730000000000000000e+02 5.771491364654622203e+02
2.740000000000000000e+02 6.661262912258866891e+02
2.750000000000000000e+02 7.057101912466292788e+02
2.760000000000000000e+02 7.379161126503521473e+02
2.770000000000000000e+02 7.662908248496162287e+02
2.780000000000000000e+02 7.694529693217174326e+02
2.790000000000000000e+02 7.676734816466196207e+02
2.800000000000000000e+02 7.384698220493665985e+02
2.810000000000000000e+02 6.933876423475737738e+02
2.820000000000000000e+02 6.368546436838848877e+02
2.830000000000000000e+02 5.547696641568119276e+02
2.840000000000000000e+02 4.812697364371630897e+02
2.850000000000000000e+02 4.329623023646552724e+02
2.860000000000000000e+02 3.907706132337700637e+02
2.870000000000000000e+02 3.346280526337623655e+02
2.880000000000000000e+02 2.805755077784696709e+02
2.890000000000000000e+02 2.386828378967024946e+02
2.900000000000000000e+02 2.004318587015140167e+02
2.910000000000000000e+02 1.754500914955403630e+02
2.920000000000000000e+02 1.781650460485377607e+02
2.930000000000000000e+02 1.489019401991283189e+02
2.940000000000000000e+02 1.139191233146647591e+02
2.950000000000000000e+02 8.557082298900637340e+01
2.960000000000000000e+02 6.950167321717478330e+01
2.970000000000000000e+02 7.048766666459235353e+01
2.980000000000000000e+02 4.744903974071734609e+01
2.990000000000000000e+02 4.139261026965334622e+01
3.000000000000000000e+02 4.617306323999159900e+01
3.010000000000000000e+02 3.597673351586791313e+01
3.020000000000000000e+02 3.922574503422519854e+01
3.030000000000000000e+02 2.138469705040494517e+01
3.040000000000000000e+02 1.246277702613005367e+01
3.050000000000000000e+02 1.210574819746959996e+01
3.060000000000000000e+02 7.458108797137470880e+00
3.070000000000000000e+02 3.076214806926661716e+00
3.080000000000000000e+02 8.309062443269031206e+00
3.090000000000000000e+02 1.264922634723088102e+01
3.100000000000000000e+02 8.621804656988782511e+00
3.110000000000000000e+02 4.726009059738639273e+00
3.120000000000000000e+02 1.950644231279823515e+01
3.130000000000000000e+02 1.336287684570673662e+01
3.140000000000000000e+02 6.746351973449689510e+00
3.150000000000000000e+02 3.743415202862514235e+01
3.160000000000000000e+02 5.444058159925309326e+01
3.170000000000000000e+02 5.865025002489127104e+01
3.180000000000000000e+02 6.925629150591200300e+01
3.190000000000000000e+02 9.098983613358166167e+01
3.200000000000000000e+02 1.201166011823270452e+02
3.210000000000000000e+02 1.191774389960589247e+02
3.220000000000000000e+02 1.303412284588257819e+02
3.230000000000000000e+02 1.630004538892339667e+02
3.240000000000000000e+02 1.993405968886119126e+02
3.250000000000000000e+02 2.073083644679527140e+02
3.260000000000000000e+02 2.413014763534534382e+02
3.270000000000000000e+02 2.579560253266957375e+02
3.280000000000000000e+02 2.715680092304503432e+02
3.290000000000000000e+02 3.148944943372746366e+02
3.300000000000000000e+02 3.750816965989215532e+02
3.310000000000000000e+02 3.960618574569592738e+02
3.320000000000000000e+02 4.091310022401993933e+02
3.330000000000000000e+02 4.336573752799668000e+02
3.340000000000000000e+02 4.657431948973249405e+02
3.350000000000000000e+02 4.886761114499072960e+02
3.360000000000000000e+02 5.340248500000000149e+02
3.370000000000000000e+02 5.659004641153286457e+02
3.380000000000000000e+02 5.789501487865580884e+02
3.390000000000000000e+02 6.257591747407715275e+02
3.400000000000000000e+02 6.691180285625383704e+02
3.410000000000000000e+02 7.103801877826169857e+02
3.420000000000000000e+02 7.505001814184985278e+02
3.430000000000000000e+02 7.863508663347852234e+02
3.440000000000000000e+02 8.125412492843804557e+02
3.450000000000000000e+02 8.574995305330849078e+02
3.460000000000000000e+02 9.016218435179424660e+02
3.470000000000000000e+02 9.340702177971375022e+02
3.480000000000000000e+02 9.581791064716868505e+02
3.490000000000000000e+02 9.870595941298490743e+02
3.500000000000000000e+02 1.040885604728327962e+03
3.510000000000000000e+02 1.116448814768720695e+03
3.520000000000000000e+02 1.167636454262601319e+03
3.530000000000000000e+02 1.166173634723086479e+03
3.540000000000000000e+02 1.208454854594481276e+03
3.550000000000000000e+02 1.240653765816219902e+03
3.560000000000000000e+02 1.270559620410702792e+03
3.570000000000000000e+02 1.313598731176103684e+03
3.580000000000000000e+02 1.361957188925756782e+03
3.590000000000000000e+02 1.348254972619788305e+03
3.600000000000000000e+02 1.351972076332710913e+03
3.610000000000000000e+02 1.358121091663210336e+03
3.620000000000000000e+02 1.345316329184816368e+03
3.630000000000000000e+02 1.334691438498236721e+03
3.640000000000000000e+02 1.307213922438821555e+03
3.650000000000000000e+02 1.248038311968469770e+03
3.660000000000000000e+02 1.180189369632855232e+03
3.670000000000000000e+02 1.119402180423061964e+03
3.680000000000000000e+02 1.039009446380417558e+03
3.690000000000000000e+02 9.990446347853136331e+02
3.700000000000000000e+02 9.453984544907706322e+02
3.710000000000000000e+02 8.715421577473567822e+02
3.720000000000000000e+02 7.934756187098134887e+02
3.730000000000000000e+02 7.073991608794859758e+02
3.740000000000000000e+02 6.599217388923464114e+02
3.750000000000000000e+02 6.319871926571254335e+02
3.760000000000000000e+02 5.953578392034845592e+02
3.770000000000000000e+02 5.406108171541175125e+02
3.780000000000000000e+02 5.026541435801703983e+02
3.790000000000000000e+02 4.708837770379585663e+02
3.800000000000000000e+02 4.273536993777221369e+02
3.810000000000000000e+02 3.726689256378344339e+02
3.820000000000000000e+02 3.216706012860393002e+02
3.830000000000000000e+02 2.865417383945234633e+02
3.840000000000000000e+02 2.551969131065945362e+02
3.850000000000000000e+02 2.182854589919111845e+02
3.860000000000000000e+02 1.948905155361962045e+02
3.870000000000000000e+02 2.019278302156777727e+02
3.880000000000000000e+02 1.418418723293934818e+02
3.890000000000000000e+02 1.050017420659617642e+02
3.900000000000000000e+02 8.995179311903756059e+01
3.910000000000000000e+02 7.839969597386439659e+01
3.920000000000000000e+02 7.927806464426460309e+01
3.930000000000000000e+02 9.407479000207379727e+01
3.940000000000000000e+02 7.429917441194778860e+01
3.950000000000000000e+02 4.172488904376706387e+01
3.960000000000000000e+02 2.068684274989610827e+01
3.970000000000000000e+02 8.715280622277674638e+00
3.980000000000000000e+02 3.451724564405726170e+01
3.990000000000000000e+02 1.362766816303626172e+01
4.000000000000000000e+02 1.046190348579100515e+01
4.010000000000000000e+02 8.275070166355718015e+00
4.020000000000000000e+02 1.834797168637216203e+01
4.030000000000000000e+02 1.143377138581289465e+01
4.040000000000000000e+02 2.849509800871190279e+01
4.050000000000000000e+02 1.627163007259951044e+01
4.060000000000000000e+02 2.393716646338784670e+00
4.070000000000000000e+02 4.785256115743703909e+00
4.080000000000000000e+02 5.218649423770907347e+00
4.090000000000000000e+02 2.601034472101324546e+00
4.100000000000000000e+02 1.099350866625175982e+01
4.110000000000000000e+02 4.241302978635141940e+00
4.120000000000000000e+02 3.035734047915246592e+00
4.130000000000000000e+02 2.524713795935285887e+01
4.140000000000000000e+02 2.598358688446367637e+01
4.150000000000000000e+02 1.125438248164278399e+01
4.160000000000000000e+02 5.466327313562878487e+00
4.170000000000000000e+02 1.571509350342273592e+01
4.180000000000000000e+02 2.614713107031749928e+01
4.190000000000000000e+02 5.640230934881729041e+01
4.200000000000000000e+02 6.274219855838958892e+01
4.210000000000000000e+02 3.718579986727506537e+01
4.220000000000000000e+02 6.096533614810156365e+01
4.230000000000000000e+02 8.070762561501722132e+01
4.240000000000000000e+02 1.087945299937771324e+02
4.250000000000000000e+02 1.230927481435388415e+02
4.260000000000000000e+02 1.163786948973238538e+02
4.270000000000000000e+02 1.432356216552583419e+02
4.280000000000000000e+02 1.512765412362580264e+02
4.290000000000000000e+02 1.498894434971997498e+02
4.300000000000000000e+02 1.632850601534955501e+02
4.310000000000000000e+02 1.871215406347231749e+02
4.320000000000000000e+02 1.872339791329599734e+02
4.330000000000000000e+02 1.938712083177766488e+02
4.340000000000000000e+02 2.107447303049163452e+02
4.350000000000000000e+02 2.453913616054766180e+02
4.360000000000000000e+02 2.698602856876167948e+02
4.370000000000000000e+02 2.179537366521455226e+02
4.380000000000000000e+02 2.268869291580259357e+02
4.390000000000000000e+02 2.253836234806059338e+02
4.400000000000000000e+02 2.203883505911634302e+02
4.410000000000000000e+02 2.344842198257979362e+02
4.420000000000000000e+02 2.543845478946275591e+02
4.430000000000000000e+02 2.581007674341423126e+02
4.440000000000000000e+02 2.501717662173372787e+02
4.450000000000000000e+02 2.385916933416303607e+02
4.460000000000000000e+02 2.313557223605061210e+02
4.470000000000000000e+02 2.343538975943592106e+02
4.480000000000000000e+02 2.416100778469197792e+02
4.490000000000000000e+02 2.376518420659613753e+02
4.500000000000000000e+02 2.120474279344662136e+02
4.510000000000000000e+02 1.889602395353665827e+02
4.520000000000000000e+02 2.111492195395146041e+02
4.530000000000000000e+02 1.971536758348893841e+02
4.540000000000000000e+02 1.886394062227754205e+02
4.550000000000000000e+02 1.999693399502182842e+02
4.560000000000000000e+02 2.161582270690727512e+02
4.570000000000000000e+02 2.174630255341214706e+02
4.580000000000000000e+02 2.226983169881766003e+02
4.590000000000000000e+02 2.258514938394524165e+02
4.600000000000000000e+02 2.053226359468994531e+02
4.610000000000000000e+02 1.924404283136275922e+02
4.620000000000000000e+02 2.159264381456129627e+02
4.630000000000000000e+02 1.965202636589920075e+02
4.640000000000000000e+02 1.666363996473763791e+02
4.650000000000000000e+02 1.545371657539929515e+02
4.660000000000000000e+02 1.536315394731383037e+02
4.670000000000000000e+02 1.474864767523849025e+02
4.680000000000000000e+02 1.518641397013068683e+02
4.690000000000000000e+02 1.578037213856045753e+02
4.700000000000000000e+02 1.273900600165909935e+02
4.710000000000000000e+02 9.400698824517733954e+01
4.720000000000000000e+02 9.083593645301773734e+01
4.730000000000000000e+02 6.524513187681471038e+01
4.740000000000000000e+02 5.106510030491616448e+01
4.750000000000000000e+02 4.954594948350959527e+01
4.760000000000000000e+02 4.194328577353800114e+01
4.770000000000000000e+02 2.512934889234613678e+01
4.780000000000000000e+02 2.053231664136114532e+01
4.790000000000000000e+02 5.284332469197282833e+00
4.800000000000000000e+02 1.029228165940665818e+01
4.810000000000000000e+02 1.755203049844455165e+01
4.820000000000000000e+02 1.802063973864336921e+00
4.830000000000000000e+02 7.051985940468790126e+00
4.840000000000000000e+02 8.842891259074878718e-01
4.850000000000000000e+02 2.071930997718376233e+01
4.860000000000000000e+02 1.251671988923385825e+01
4.870000000000000000e+02 1.610363639908737454e+01
4.880000000000000000e+02 3.297637441609436060e+00
4.890000000000000000e+02 4.173741529307408715e-01
4.900000000000000000e+02 2.351634303049237484e+00
4.910000000000000000e+02 4.035465814561183251e+00
4.920000000000000000e+02 1.237700182496894463e+01
4.930000000000000000e+02 9.522977313005615230e+00
4.940000000000000000e+02 6.339595181912542898e+00
4.950000000000000000e+02 1.907763789091601048e+00
4.960000000000000000e+02 2.030743526077143812e+00
4.970000000000000000e+02 3.902314578303244907e+00
4.980000000000000000e+02 1.095259632517633541e+01
4.990000000000000000e+02 2.171913438705670174e+01
5.000000000000000000e+02 1.889797523957679815e+01
5.010000000000000000e+02 8.589111104106274652e+00
5.020000000000000000e+02 4.359121345363453415e+00
5.030000000000000000e+02 2.098037870358872681e+01
5.040000000000000000e+02 1.880654851513902059e+01
5.050000000000000000e+02 1.504451657125065189e+01
5.060000000000000000e+02 2.376974841734109134e+01
5.070000000000000000e+02 3.659932601949783759e+01
5.080000000000000000e+02 4.948580884878633412e+01
5.090000000000000000e+02 5.793165047915374544e+01
5.100000000000000000e+02 5.454568813939013694e+01
5.110000000000000000e+02 7.640821754822620449e+01
5.120000000000000000e+02 8.839104608587433631e+01
5.130000000000000000e+02 8.818055621447827264e+01
5.140000000000000000e+02 9.613070436838806643e+01
5.150000000000000000e+02 1.127369574569592316e+02
5.160000000000000000e+02 1.197262693009749199e+02
5.170000000000000000e+02 1.365823289773906595e+02
5.180000000000000000e+02 1.508502162588137878e+02
5.190000000000000000e+02 1.575806560049786356e+02
5.200000000000000000e+02 1.777283447417548814e+02
5.210000000000000000e+02 1.804351297801742078e+02
5.220000000000000000e+02 1.869304932794027252e+02
5.230000000000000000e+02 1.933552141257000869e+02
5.240000000000000000e+02 2.080270854832021428e+02
5.250000000000000000e+02 2.338109079236673722e+02
5.260000000000000000e+02 2.334039267786766345e+02
5.270000000000000000e+02 2.374122954375777965e+02
5.280000000000000000e+02 2.307808269446172176e+02
5.290000000000000000e+02 2.257497598423563545e+02
5.300000000000000000e+02 2.320115941932808141e+02
5.310000000000000000e+02 2.308603929475212624e+02
5.320000000000000000e+02 2.373125914747977561e+02
5.330000000000000000e+02 2.342600926571250284e+02
5.340000000000000000e+02 2.378782256170918572e+02
5.350000000000000000e+02 2.286925461107662443e+02
5.360000000000000000e+02 1.807914529350757107e+02
5.370000000000000000e+02 2.121835069072805027e+02
5.380000000000000000e+02 1.977448227753584433e+02
5.390000000000000000e+02 1.778254350342252508e+02
5.400000000000000000e+02 1.696406383737814849e+02
5.410000000000000000e+02 1.477426110765408396e+02
5.420000000000000000e+02 1.083251178593654487e+02
5.430000000000000000e+02 1.148823207840694209e+02
5.440000000000000000e+02 1.277270685542416260e+02
5.450000000000000000e+02 1.337947200995643868e+02
5.460000000000000000e+02 1.267427058494093046e+02
5.470000000000000000e+02 8.462028574450503982e+01
5.480000000000000000e+02 6.580086334577887897e+01
5.490000000000000000e+02 8.067848226923901223e+01
5.500000000000000000e+02 9.740121345499774463e+01
5.510000000000000000e+02 9.892350677037970286e+01
5.520000000000000000e+02 8.893333697158300311e+01
5.530000000000000000e+02 7.548602940273768525e+01
5.540000000000000000e+02 6.984651127566903028e+01
5.550000000000000000e+02 5.723851431860663297e+01
5.560000000000000000e+02 4.511469158855263117e+01
5.570000000000000000e+02 4.724348316324390851e+01
5.580000000000000000e+02 6.079306444513550645e+01
5.590000000000000000e+02 4.983765260112036088e+01
5.600000000000000000e+02 3.182750287492244823e+01
5.610000000000000000e+02 2.015999324206611121e+01
5.620000000000000000e+02 8.337370053515760659e+00
5.630000000000000000e+02 8.604802803567681124e+00
5.640000000000000000e+02 3.495200728064730367e+00
5.650000000000000000e+02 7.976133906658967376e+00
5.660000000000000000e+02 3.509099539514706123e+01
5.670000000000000000e+02 3.530686508815533386e+01
5.680000000000000000e+02 1.382265686164725693e+01
5.690000000000000000e+02 1.369227305538268702e+01
5.700000000000000000e+02 9.250775736153997286e+00
5.710000000000000000e+02 1.018727242688164125e+01
5.720000000000000000e+02 3.816452988382796452e+00
5.730000000000000000e+02 1.618986529324054757e+01
5.740000000000000000e+02 3.766257724953192554e+00
5.750000000000000000e+02 1.915489774113221699e+01
5.760000000000000000e+02 2.723713993985889559e+01
5.770000000000000000e+02 3.434289429371499835e+01
5.780000000000000000e+02 3.444289719352832435e+01
5.790000000000000000e+02 2.185461851099109509e+01
5.800000000000000000e+02 7.190103378137192358e+00
5.810000000000000000e+02 1.039813722837597254e+01
5.820000000000000000e+02 1.608893118622963669e+01
5.830000000000000000e+02 6.554519371499427649e+00
5.840000000000000000e+02 2.036757449284399257e+01
5.850000000000000000e+02 1.696791768097922670e+01
5.860000000000000000e+02 1.699738011408256355e+01
5.870000000000000000e+02 5.226675131480809711e+01
5.880000000000000000e+02 4.970607756067244765e+01
5.890000000000000000e+02 4.166330999170290994e+01
5.900000000000000000e+02 4.852563750103658435e+01
5.910000000000000000e+02 5.911068277120929793e+01
5.920000000000000000e+02 5.487719377722463321e+01
5.930000000000000000e+02 6.522533739527175101e+01
5.940000000000000000e+02 7.303334516697786682e+01
5.950000000000000000e+02 8.687715149968917672e+01
5.960000000000000000e+02 1.019708433430114098e+02
5.970000000000000000e+02 1.016164299937771887e+02
5.980000000000000000e+02 9.962224252022382132e+01
5.990000000000000000e+02 1.456253313005583720e+02
6.000000000000000000e+02 1.476107890916622125e+02
6.010000000000000000e+02 1.465715604646326256e+02
6.020000000000000000e+02 1.766080039203482386e+02
6.030000000000000000e+02 1.845819174201570831e+02
6.040000000000000000e+02 2.103582601120097877e+02
6.050000000000000000e+02 2.076003917859367220e+02
6.060000000000000000e+02 1.895963912069680646e+02
6.070000000000000000e+02 1.797748843186060412e+02
6.080000000000000000e+02 1.938264416511100876e+02
6.090000000000000000e+02 2.377199568228960800e+02
6.100000000000000000e+02 2.296266169674336766e+02
6.110000000000000000e+02 2.445974028624776224e+02
6.120000000000000000e+02 2.935924489838275804e+02
6.130000000000000000e+02 3.193428573947285827e+02
6.140000000000000000e+02 2.757400899398464276e+02
6.150000000000000000e+02 2.829474149761456374e+02
6.160000000000000000e+02 2.931145748599868739e+02
6.170000000000000000e+02 3.224101950840087625e+02
6.180000000000000000e+02 3.376621292885295134e+02
6.190000000000000000e+02 3.435668208670394392e+02
6.200000000000000000e+02 3.774197291225883646e+02
6.210000000000000000e+02 3.776968705662725938e+02
6.220000000000000000e+02 4.231278562953746700e+02
6.230000000000000000e+02 4.524212847542003715e+02
6.240000000000000000e+02 4.710233379381878080e+02
6.250000000000000000e+02 5.048236729309281259e+02
6.260000000000000000e+02 5.389890573828287188e+02
6.270000000000000000e+02 5.392278657747370971e+02
6.280000000000000000e+02 6.011466562331488603e+02
6.290000000000000000e+02 6.681411158440492954e+02
6.300000000000000000e+02 7.129267402613578497e+02
6.310000000000000000e+02 7.552197098112437743e+02
6.320000000000000000e+02 8.086848128992133979e+02
6.330000000000000000e+02 8.590954553204716149e+02
6.340000000000000000e+02 9.295410799626649805e+02
6.350000000000000000e+02 1.015877107424307837e+03
6.360000000000000000e+02 1.108312749844430300e+03
6.370000000000000000e+02 1.191564010786143626e+03
6.380000000000000000e+02 1.253921616756533922e+03
6.390000000000000000e+02 1.381326892968266520e+03
6.400000000000000000e+02 1.525018287699649136e+03
6.410000000000000000e+02 1.653652307819957514e+03
6.420000000000000000e+02 1.767235231902096984e+03
6.430000000000000000e+02 1.887474289981332959e+03
6.440000000000000000e+02 2.042004736154328612e+03
6.450000000000000000e+02 2.205622920763329603e+03
6.460000000000000000e+02 2.355278017631197599e+03
6.470000000000000000e+02 2.481019944617301462e+03
6.480000000000000000e+02 2.599198065961420070e+03
6.490000000000000000e+02 2.733660590541381680e+03
6.500000000000000000e+02 2.872234075295581079e+03
6.510000000000000000e+02 2.941854482057663972e+03
6.520000000000000000e+02 2.989778382700684233e+03
6.530000000000000000e+02 3.065946102675794464e+03
6.540000000000000000e+02 3.114299571458203445e+03
6.550000000000000000e+02 3.060975924720033163e+03
6.560000000000000000e+02 2.999993855216760039e+03
6.570000000000000000e+02 2.997513039203484823e+03
6.580000000000000000e+02 2.935175466611364754e+03
6.590000000000000000e+02 2.839374695084007271e+03
6.600000000000000000e+02 2.754004903961834316e+03
6.610000000000000000e+02 2.669652965989216227e+03
6.620000000000000000e+02 2.587542161792159277e+03
6.630000000000000000e+02 2.559750104957478015e+03
6.640000000000000000e+02 2.455606596018249547e+03
6.650000000000000000e+02 2.354952084007467420e+03
6.660000000000000000e+02 2.284535187927816878e+03
6.670000000000000000e+02 2.193072383322962196e+03
6.680000000000000000e+02 2.162861605683467587e+03
6.690000000000000000e+02 2.093330759643302372e+03
6.700000000000000000e+02 2.030297312590749016e+03
6.710000000000000000e+02 1.998037127566894924e+03
6.720000000000000000e+02 1.986385488593944501e+03
6.730000000000000000e+02 1.965705472930927499e+03
6.740000000000000000e+02 1.913494916407384835e+03
6.750000000000000000e+02 1.919857240356698412e+03
6.760000000000000000e+02 1.918434150591163643e+03
6.770000000000000000e+02 1.895240054967849801e+03
6.780000000000000000e+02 1.883489104520945602e+03
6.790000000000000000e+02 1.903551322962040786e+03
6.800000000000000000e+02 1.908804998755445013e+03
6.810000000000000000e+02 1.901833715619166014e+03
6.820000000000000000e+02 1.900516916407384315e+03
6.830000000000000000e+02 1.893422572910184499e+03
6.840000000000000000e+02 1.869893982576229291e+03
6.850000000000000000e+02 1.835229661481019775e+03
6.860000000000000000e+02 1.795468538684919167e+03
6.870000000000000000e+02 1.731487896494503957e+03
6.880000000000000000e+02 1.714812420037336551e+03
6.890000000000000000e+02 1.678203659614190201e+03
6.900000000000000000e+02 1.597890133167394424e+03
6.910000000000000000e+02 1.511044086911431805e+03
6.920000000000000000e+02 1.434351707114709370e+03
6.930000000000000000e+02 1.380320456959138482e+03
6.940000000000000000e+02 1.265941146857501508e+03
6.950000000000000000e+02 1.186030990045625458e+03
6.960000000000000000e+02 1.112538767060776308e+03
6.970000000000000000e+02 1.000237400331881872e+03
6.980000000000000000e+02 9.209530037121525083e+02
6.990000000000000000e+02 8.738850076540129521e+02
7.000000000000000000e+02 8.284964547604222389e+02
7.010000000000000000e+02 7.260488944006684733e+02
7.020000000000000000e+02 6.289409575399315599e+02
7.030000000000000000e+02 5.778567281891704397e+02
7.040000000000000000e+02 5.264616549149747016e+02
7.050000000000000000e+02 4.827967720597404195e+02
7.060000000000000000e+02 4.255737077577296077e+02
7.070000000000000000e+02 4.061644178386230806e+02
7.080000000000000000e+02 3.732047276913527298e+02
7.090000000000000000e+02 3.107860205351601621e+02
7.100000000000000000e+02 2.729436885293510500e+02
7.110000000000000000e+02 2.470960992740098163e+02
7.120000000000000000e+02 2.231448537025516430e+02
7.130000000000000000e+02 1.995677801493463619e+02
7.140000000000000000e+02 1.729800064509434776e+02
7.150000000000000000e+02 1.540481126737190891e+02
7.160000000000000000e+02 1.494359148724328747e+02
7.170000000000000000e+02 1.326903717485990342e+02
7.180000000000000000e+02 8.736259297863368545e+01
7.190000000000000000e+02 7.131138052271336392e+01
7.200000000000000000e+02 5.306560611076386635e+01
7.210000000000000000e+02 4.232387595188787088e+01
7.220000000000000000e+02 5.381945461107656570e+01
7.230000000000000000e+02 5.235034420659618348e+01
7.240000000000000000e+02 5.050489782248050830e+01
7.250000000000000000e+02 4.040710089193137833e+01
7.260000000000000000e+02 2.421406082140667237e+01
7.270000000000000000e+02 1.162090404645380559e+01
7.280000000000000000e+02 5.748952464841296184e+00
7.290000000000000000e+02 1.796343745281054449e+00
7.300000000000000000e+02 1.969705412277128032e+00
7.310000000000000000e+02 1.919808373366559451e+01
7.320000000000000000e+02 8.762059650487078244e+00
7.330000000000000000e+02 2.350695378888448772e+01
7.340000000000000000e+02 1.603328765401321121e+01
7.350000000000000000e+02 1.520208818917335059e+01
7.360000000000000000e+02 3.780079728064793443e+01
7.370000000000000000e+02 1.045631165982067579e+01
7.380000000000000000e+02 2.812529723351809174e+00
7.390000000000000000e+02 4.457761091267236253e+01
7.400000000000000000e+02 4.589207307341460762e+01
7.410000000000000000e+02 4.619886572495332189e+00
7.420000000000000000e+02 9.275549845260314896e+00
7.430000000000000000e+02 6.082092524263995159e+00
7.440000000000000000e+02 5.892322275669092058e+00
7.450000000000000000e+02 1.806694382700703727e+01
7.460000000000000000e+02 1.634731465367032399e+01
7.470000000000000000e+02 1.748159173614695305e+00
7.480000000000000000e+02 1.018654808276225765e+01
7.490000000000000000e+02 9.190532839036791302e+00
7.500000000000000000e+02 1.994430238954550916e+01
7.510000000000000000e+02 5.810906352965469424e+00
7.520000000000000000e+02 8.584159159095664293e+00
7.530000000000000000e+02 1.053218980584923870e+01
7.540000000000000000e+02 6.563526121732945029e+00
7.550000000000000000e+02 1.958397725575599324e+01
7.560000000000000000e+02 1.237806575067424930e+01
7.570000000000000000e+02 1.571945042886795108e+01
7.580000000000000000e+02 9.819585254511082439e+00
7.590000000000000000e+02 7.016704990043723278e+00
7.600000000000000000e+02 7.277255334508492268e+00
7.610000000000000000e+02 3.727150478738752071e+01
7.620000000000000000e+02 1.249119800248983658e+01
7.630000000000000000e+02 5.295264901472838659e+01
7.640000000000000000e+02 5.538971059116315132e+01
7.650000000000000000e+02 3.795209351171926926e+01
7.660000000000000000e+02 3.172160645716640559e+01
7.670000000000000000e+02 4.807285856876249142e+01
7.680000000000000000e+02 7.291186601742380446e+01
7.690000000000000000e+02 5.929914930927209582e+01
7.700000000000000000e+02 6.106031470234375291e+01
7.710000000000000000e+02 9.556334092511865208e+01
7.720000000000000000e+02 1.115313694669155211e+02
7.730000000000000000e+02 1.036027141257000039e+02
7.740000000000000000e+02 1.065870351379382583e+02
7.750000000000000000e+02 1.299313865588051726e+02
7.760000000000000000e+02 1.215423616054759464e+02
7.770000000000000000e+02 1.190234714226462671e+02
7.780000000000000000e+02 1.332506852520228051e+02
7.790000000000000000e+02 1.492186779298901627e+02
7.800000000000000000e+02 1.516619467026129371e+02
7.810000000000000000e+02 1.412714577680977186e+02
7.820000000000000000e+02 1.371429606098320733e+02
7.830000000000000000e+02 1.823859427416015819e+02
7.840000000000000000e+02 1.842167214893173082e+02
7.850000000000000000e+02 1.869592181497614831e+02
7.860000000000000000e+02 2.108333985068440199e+02
7.870000000000000000e+02 2.216397223397635230e+02
7.880000000000000000e+02 1.984716795270690568e+02
7.890000000000000000e+02 1.827956225679319857e+02
7.900000000000000000e+02 1.914540724953329516e+02
7.910000000000000000e+02 1.914101313005600957e+02
7.920000000000000000e+02 1.799754759800869977e+02
7.930000000000000000e+02 1.817531150591163396e+02
7.940000000000000000e+02 1.939878854801908687e+02
7.950000000000000000e+02 1.763256782202861075e+02
7.960000000000000000e+02 1.371226107031737058e+02
7.970000000000000000e+02 1.646971857291012498e+02
7.980000000000000000e+02 1.764418921178178721e+02
7.990000000000000000e+02 1.798318613565649571e+02
8.000000000000000000e+02 1.856387948350963768e+02
8.010000000000000000e+02 1.794207105164903737e+02
8.020000000000000000e+02 1.518318906243517858e+02
8.030000000000000000e+02 1.561396150974699140e+02
8.040000000000000000e+02 1.503517678904791808e+02
8.050000000000000000e+02 1.523196990665838371e+02
8.060000000000000000e+02 1.539368789713813044e+02
8.070000000000000000e+02 1.506832917651938999e+02
8.080000000000000000e+02 1.510592952292057021e+02
8.090000000000000000e+02 1.455150451679801051e+02
8.100000000000000000e+02 1.541798308649656235e+02
8.110000000000000000e+02 1.525559767475629087e+02
8.120000000000000000e+02 1.491131225632518067e+02
8.130000000000000000e+02 1.522569939639077745e+02
8.140000000000000000e+02 1.462751063472314002e+02
8.150000000000000000e+02 1.202724216552582277e+02
8.160000000000000000e+02 1.267758864758347528e+02
8.170000000000000000e+02 1.371842601534951882e+02
8.180000000000000000e+02 1.179886556730965026e+02
8.190000000000000000e+02 8.046285906036052893e+01
8.200000000000000000e+02 7.889050363824982526e+01
8.210000000000000000e+02 1.062151803152873413e+02
8.220000000000000000e+02 9.616466093549036032e+01
8.230000000000000000e+02 9.271382848164259372e+01
8.240000000000000000e+02 7.716905363410123186e+01
8.250000000000000000e+02 7.760825753578080821e+01
8.260000000000000000e+02 3.969551612736289314e+01
8.270000000000000000e+02 3.832607474175361517e+01
8.280000000000000000e+02 7.758263377100124103e+01
8.290000000000000000e+02 5.643800620489385977e+01
8.300000000000000000e+02 6.500513997925776266e+01
8.310000000000000000e+02 3.760922061190642296e+01
8.320000000000000000e+02 5.627360596432982476e+01
8.330000000000000000e+02 6.254646003733656556e+01
8.340000000000000000e+02 5.121288647583486409e+01
8.350000000000000000e+02 5.169623501866455939e+01
8.360000000000000000e+02 5.750539532254727249e+01
8.370000000000000000e+02 5.204804560672020131e+01
8.380000000000000000e+02 2.349625508917573313e+01
8.390000000000000000e+02 3.333837903754307064e+01
8.400000000000000000e+02 3.574420986517262833e+01
8.410000000000000000e+02 2.834184125881395744e+01
8.420000000000000000e+02 2.729447807716235630e+01
8.430000000000000000e+02 2.798227988384160270e+01
8.440000000000000000e+02 2.872104952914305898e+01
8.450000000000000000e+02 4.252468129433712818e+01
8.460000000000000000e+02 3.864713181082785098e+01
8.470000000000000000e+02 3.534034527691350291e+01
8.480000000000000000e+02 3.441384101846090715e+01
8.490000000000000000e+02 3.085385103920349081e+01
8.500000000000000000e+02 2.733144630781985285e+01
8.510000000000000000e+02 2.507590846919731575e+01
8.520000000000000000e+02 3.516734574362184418e+01
8.530000000000000000e+02 3.283450091474767873e+01
8.540000000000000000e+02 2.153524613980444968e+01
8.550000000000000000e+02 1.799462024885953326e+01
8.560000000000000000e+02 1.828634038581249044e+01
8.570000000000000000e+02 2.142014904169396061e+01
8.580000000000000000e+02 4.349130225425057006e+01
8.590000000000000000e+02 2.236875188757504773e+01
8.600000000000000000e+02 5.381528117610361761e+01
8.610000000000000000e+02 3.875058247200411898e+01
8.620000000000000000e+02 2.181998349927395608e+01
8.630000000000000000e+02 3.364640611283951444e+01
8.640000000000000000e+02 3.887165166321021559e+01
8.650000000000000000e+02 1.821096418792748750e+01
8.660000000000000000e+02 1.870809902094923594e+00
8.670000000000000000e+02 1.871294160182578281e+01
8.680000000000000000e+02 2.428276713752324412e+01
8.690000000000000000e+02 4.862461151836630968e+00
8.700000000000000000e+02 1.561842243310381306e+01
8.710000000000000000e+02 6.691600408006853407e+00
8.720000000000000000e+02 1.038801801700901706e+01
8.730000000000000000e+02 9.058087103091219561e+00
8.740000000000000000e+02 1.086648497510909905e+01
8.750000000000000000e+02 1.719583341443762592e+01
8.760000000000000000e+02 3.170989851068248910e+01
8.770000000000000000e+02 1.784618024268854342e+01
8.780000000000000000e+02 1.260464706782806132e+01
8.790000000000000000e+02 2.543117637212199966e+01
8.800000000000000000e+02 2.173307413192275916e+01
8.810000000000000000e+02 3.392101200165971875e+01
8.820000000000000000e+02 2.348593484861030944e+01
8.830000000000000000e+02 1.951158261356582813e+01
8.840000000000000000e+02 2.731640552582490500e+01
8.850000000000000000e+02 2.911691704686820614e+01
8.860000000000000000e+02 3.138732574154611044e+01
8.870000000000000000e+02 5.655709863513799007e+01
8.880000000000000000e+02 5.276647143508922966e+01
8.890000000000000000e+02 6.590949975731150801e+01
8.900000000000000000e+02 7.501459096867863252e+01
8.910000000000000000e+02 6.433187004147661980e+01
8.920000000000000000e+02 6.513385537440372275e+01
8.930000000000000000e+02 5.796843410080887082e+01
8.940000000000000000e+02 2.572571488593899858e+01
8.950000000000000000e+02 4.520131181912518059e+01
8.960000000000000000e+02 6.226820651317166266e+01
8.970000000000000000e+02 6.450576783654835822e+01
8.980000000000000000e+02 6.215030892345984626e+01
8.990000000000000000e+02 6.764228573325048899e+01
9.000000000000000000e+02 6.618265952291999099e+01
9.010000000000000000e+02 5.922378784277151453e+01
9.020000000000000000e+02 6.471480387056611505e+01
9.030000000000000000e+02 4.622533873055384390e+01
9.040000000000000000e+02 6.683976599253306006e+01
9.050000000000000000e+02 5.683699457788824105e+01
9.060000000000000000e+02 5.305859423356149307e+01
9.070000000000000000e+02 5.254770434971999293e+01
9.080000000000000000e+02 4.368653709603820801e+01
9.090000000000000000e+02 3.712550327732840572e+01
9.100000000000000000e+02 3.863269562746312857e+01
9.110000000000000000e+02 3.315314724595603479e+01
9.120000000000000000e+02 3.713812099564417224e+01
9.130000000000000000e+02 4.941255444513590334e+01
9.140000000000000000e+02 4.355373153878050374e+01
9.150000000000000000e+02 3.212043868906862798e+01
9.160000000000000000e+02 2.750876616054759793e+01
9.170000000000000000e+02 2.098791433844874987e+01
9.180000000000000000e+02 1.465317200165932654e+01
9.190000000000000000e+02 5.987280625596303807e+00
9.200000000000000000e+02 7.523574349854936116e+00
9.210000000000000000e+02 4.217258390168026949e+01
9.220000000000000000e+02 2.293930263845707529e+01
9.230000000000000000e+02 4.176545315079826182e+00
9.240000000000000000e+02 8.836603516697769223e+00
9.250000000000000000e+02 1.728224663347861068e+01
9.260000000000000000e+02 1.734355647790907895e+01
9.270000000000000000e+02 5.748960890686455549e+00
9.280000000000000000e+02 2.218732928438084429e+01
9.290000000000000000e+02 1.116146214851692164e+01
9.300000000000000000e+02 2.591108347853147720e+01
9.310000000000000000e+02 9.421882471686782168e+00
9.320000000000000000e+02 2.577528031736151704e+01
9.330000000000000000e+02 1.859305605268628625e+01
9.340000000000000000e+02 1.140632680771638618e+01
9.350000000000000000e+02 7.092836343497220142e+00
9.360000000000000000e+02 1.103264117195595162e+01
9.370000000000000000e+02 1.530772534218160175e+01
9.380000000000000000e+02 1.483079391412568704e+01
9.390000000000000000e+02 2.034525688861244319e+01
9.400000000000000000e+02 2.694158766072213140e+01
9.410000000000000000e+02 8.943617122381342099e+00
9.420000000000000000e+02 5.205383660443676064e+00
9.430000000000000000e+02 9.465704635213205265e+00
9.440000000000000000e+02 3.545841796515208699e+01
9.450000000000000000e+02 2.052470885501043085e+01
9.460000000000000000e+02 5.022127811281639431e+00
9.470000000000000000e+02 1.757747159800824477e+01
9.480000000000000000e+02 3.991495885500862784e+01
9.490000000000000000e+02 5.074745930319362230e+01
9.500000000000000000e+02 2.676988362995177440e+01
9.510000000000000000e+02 5.597059380004140650e+01
9.520000000000000000e+02 4.148836706492427595e+01
9.530000000000000000e+02 4.813401028002488857e+01
9.540000000000000000e+02 6.906478641982988620e+01
9.550000000000000000e+02 7.425465377307592973e+01
9.560000000000000000e+02 8.266008368595805678e+01
9.570000000000000000e+02 1.037285837585561126e+02
9.580000000000000000e+02 7.844797686372119472e+01
9.590000000000000000e+02 1.195714656295355383e+02
9.600000000000000000e+02 1.302999193735738004e+02
9.610000000000000000e+02 1.347396253266954318e+02
9.620000000000000000e+02 1.315159285625394716e+02
9.630000000000000000e+02 1.533527828701755027e+02
9.640000000000000000e+02 1.863068906658374715e+02
9.650000000000000000e+02 1.734069191661477021e+02
9.660000000000000000e+02 1.906952779137282903e+02
9.670000000000000000e+02 2.043647118232731827e+02
9.680000000000000000e+02 1.869093792366729474e+02
9.690000000000000000e+02 2.062825666113647003e+02
9.700000000000000000e+02 2.349855299730349429e+02
9.710000000000000000e+02 2.249098835096447999e+02
9.720000000000000000e+02 2.102605990460394025e+02
9.730000000000000000e+02 2.309101054345577495e+02
9.740000000000000000e+02 2.433335763119690967e+02
9.750000000000000000e+02 2.711375783907080859e+02
9.760000000000000000e+02 2.765103498444305501e+02
9.770000000000000000e+02 3.144075237710036959e+02
9.780000000000000000e+02 3.289862667081517316e+02
9.790000000000000000e+02 3.522504853349910832e+02
9.800000000000000000e+02 3.855360643434970029e+02
9.810000000000000000e+02 3.913763768512755519e+02
9.820000000000000000e+02 4.043606212196636420e+02
9.830000000000000000e+02 4.271110279610037992e+02
9.840000000000000000e+02 4.219368906036091857e+02
9.850000000000000000e+02 4.445546747355322736e+02
9.860000000000000000e+02 4.501973534121551097e+02
9.870000000000000000e+02 4.652956650280033841e+02
9.880000000000000000e+02 4.873164783447421655e+02
9.890000000000000000e+02 4.963046518357189711e+02
9.900000000000000000e+02 4.983650637834462600e+02
9.910000000000000000e+02 4.855487494088370113e+02
9.920000000000000000e+02 5.083937814599759122e+02
9.930000000000000000e+02 5.252286598216136326e+02
9.940000000000000000e+02 5.205192822028623141e+02
9.950000000000000000e+02 5.376597749066788765e+02
9.960000000000000000e+02 5.442278541174034672e+02
9.970000000000000000e+02 5.441890296204102242e+02
9.980000000000000000e+02 5.730741110327663819e+02
9.990000000000000000e+02 5.933479064716864286e+02
1.000000000000000000e+03 6.150091635967640968e+02
1.001000000000000000e+03 6.011882448132782883e+02
1.002000000000000000e+03 6.125185120331952930e+02
1.003000000000000000e+03 6.624198630705384403e+02
1.004000000000000000e+03 6.834732085062244096e+02
1.005000000000000000e+03 7.289209738589203198e+02
1.006000000000000000e+03 8.106684285714296720e+02
1.007000000000000000e+03 8.564528099585080554e+02
1.008000000000000000e+03 9.347570219916992755e+02
1.009000000000000000e+03 9.884020755186735414e+02
1.010000000000000000e+03 1.031744556016596562e+03
1.011000000000000000e+03 1.076238141078837998e+03
1.012000000000000000e+03 1.112534114107884079e+03
1.013000000000000000e+03 1.141410788381742350e+03
1.014000000000000000e+03 1.160590607883817711e+03
1.015000000000000000e+03 1.179637887966804556e+03
1.016000000000000000e+03 1.210381390041495024e+03
1.017000000000000000e+03 1.217793958506224499e+03
1.018000000000000000e+03 1.183111551867220669e+03
1.019000000000000000e+03 1.223750566390041513e+03
1.020000000000000000e+03 1.179274265560168033e+03
1.021000000000000000e+03 1.165157321576764389e+03
1.022000000000000000e+03 1.171956831950207970e+03
1.023000000000000000e+03 1.125340825726140338e+03
1.024000000000000000e+03 1.059740929460580674e+03
1.025000000000000000e+03 1.029284273858918823e+03
1.026000000000000000e+03 9.957642199170131789e+02
1.027000000000000000e+03 9.862772619047620992e+02
1.028000000000000000e+03 9.821816670124475195e+02
1.029000000000000000e+03 9.002131373443866096e+02
1.030000000000000000e+03 8.370960547717868394e+02
1.031000000000000000e+03 7.829826186721976455e+02
1.032000000000000000e+03 7.308197344398320183e+02
1.033000000000000000e+03 6.981645199170170599e+02
1.034000000000000000e+03 6.270381302904590939e+02
1.035000000000000000e+03 5.292254478260847463e+02
1.036000000000000000e+03 5.107635396265559962e+02
1.037000000000000000e+03 5.057824414937767870e+02
1.038000000000000000e+03 4.541333514522812607e+02
1.039000000000000000e+03 3.937762219916973550e+02
1.040000000000000000e+03 3.562238709543586310e+02
1.041000000000000000e+03 3.306594186721994220e+02
1.042000000000000000e+03 3.010187124481312253e+02
1.043000000000000000e+03 2.692350406638966547e+02
1.044000000000000000e+03 2.303791163900412187e+02
1.045000000000000000e+03 2.391973711618254015e+02
1.046000000000000000e+03 2.137529026970915993e+02
1.047000000000000000e+03 1.692816521739153757e+02
1.048000000000000000e+03 1.686839253112034385e+02
1.049000000000000000e+03 1.675937838174255319e+02
1.050000000000000000e+03 1.408685614107878621e+02
1.051000000000000000e+03 1.234257435684650233e+02
1.052000000000000000e+03 1.183389624481323921e+02
1.053000000000000000e+03 1.183248136929476857e+02
1.054000000000000000e+03 1.581006470954336862e+02
1.055000000000000000e+03 1.350907408713693769e+02
1.056000000000000000e+03 1.404217521739147116e+02
1.057000000000000000e+03 1.404613041493782646e+02
1.058000000000000000e+03 1.343494531120331601e+02
1.059000000000000000e+03 1.449408020746896000e+02
1.060000000000000000e+03 1.565015636929450409e+02
1.061000000000000000e+03 1.455134620331952249e+02
1.062000000000000000e+03 1.433480518672199366e+02
1.063000000000000000e+03 1.411676643153517716e+02
1.064000000000000000e+03 1.256991217391304900e+02
1.065000000000000000e+03 1.662779580912859103e+02
1.066000000000000000e+03 1.543814825726119579e+02
1.067000000000000000e+03 1.343216493775936442e+02
1.068000000000000000e+03 1.342054348547716813e+02
1.069000000000000000e+03 1.392878815352699462e+02
1.070000000000000000e+03 1.343545199170110607e+02
1.071000000000000000e+03 1.087375238589188626e+02
1.072000000000000000e+03 1.350613623188407075e+02
1.073000000000000000e+03 1.213274489626550690e+02
1.074000000000000000e+03 1.184794572614108574e+02
1.075000000000000000e+03 1.140598692946060453e+02
1.076000000000000000e+03 1.097871285714285108e+02
1.077000000000000000e+03 1.115164161825725841e+02
1.078000000000000000e+03 1.154341170124479845e+02
1.079000000000000000e+03 1.097273234439834653e+02
1.080000000000000000e+03 9.717546159751005064e+01
1.081000000000000000e+03 8.957549937759507941e+01
1.082000000000000000e+03 6.245928311203358163e+01
1.083000000000000000e+03 9.901592863070685269e+01
1.084000000000000000e+03 9.731036680497783209e+01
1.085000000000000000e+03 6.451758983402629610e+01
1.086000000000000000e+03 4.460414678423230583e+01
1.087000000000000000e+03 4.471836800829920122e+01
1.088000000000000000e+03 4.888157315352696486e+01
1.089000000000000000e+03 3.868869427385932624e+01
1.090000000000000000e+03 2.057012170124534833e+01
1.091000000000000000e+03 3.232230701244817084e+01
1.092000000000000000e+03 1.555383037344471653e+01
1.093000000000000000e+03 1.808744503105606327e+01
1.094000000000000000e+03 3.206203991701308809e+01
1.095000000000000000e+03 1.402360014522886544e+01
1.096000000000000000e+03 4.918496535270426406e+00
1.097000000000000000e+03 5.797282480331066523e+00
1.098000000000000000e+03 2.613982165975217242e+01
1.099000000000000000e+03 1.153011116182662121e+01
1.100000000000000000e+03 6.054874738589097305e+00
1.101000000000000000e+03 1.173803582780029942e+01
1.102000000000000000e+03 3.076566360996282334e+00
1.103000000000000000e+03 2.040941975103726946e+01
1.104000000000000000e+03 7.019455047718253127e+00
1.105000000000000000e+03 8.713239026915077901e+00
1.106000000000000000e+03 1.228224846473197074e+00
1.107000000000000000e+03 6.223860195021197583e+00
1.108000000000000000e+03 6.431704481326420364e+00
1.109000000000000000e+03 8.428533377592515308e+00
1.110000000000000000e+03 8.982862452282093457e+00
1.111000000000000000e+03 2.322352780083296597e+00
1.112000000000000000e+03 1.469882530498136575e+01
1.113000000000000000e+03 9.074968714285839511e+00
1.114000000000000000e+03 2.011919257261518723e+01
1.115000000000000000e+03 1.981490850622314781e+01
1.116000000000000000e+03 3.847106278007569991e+00
1.117000000000000000e+03 1.075041737060040603e+01
1.118000000000000000e+03 1.894746329875751911e+01
1.119000000000000000e+03 1.986100991701471941e+01
1.120000000000000000e+03 5.798310236514295113e+00
1.121000000000000000e+03 1.219722729045713905e+01
1.122000000000000000e+03 3.620495190476119518e+01
1.123000000000000000e+03 2.155766074688624911e+01
1.124000000000000000e+03 3.177783647302898018e+01
1.125000000000000000e+03 3.271530323651464300e+01
1.126000000000000000e+03 3.335853686721999622e+01
1.127000000000000000e+03 3.264670491701246391e+01
1.128000000000000000e+03 2.246088921161710772e+01
1.129000000000000000e+03 1.083069721991711454e+01
1.130000000000000000e+03 2.435556692945969459e+01
1.131000000000000000e+03 4.597315356846463175e+01
1.132000000000000000e+03 3.265071228215633425e+01
1.133000000000000000e+03 2.555395286307016534e+01
1.134000000000000000e+03 4.687334132505181117e+01
1.135000000000000000e+03 5.418677114107869386e+01
1.136000000000000000e+03 3.365608473029215730e+01
1.137000000000000000e+03 4.008544636929347860e+01
1.138000000000000000e+03 5.494642800829895180e+01
1.139000000000000000e+03 3.552631116182175930e+01
1.140000000000000000e+03 1.230816195020626225e+01
1.141000000000000000e+03 2.860762995850621948e+01
1.142000000000000000e+03 2.908989585921452203e+01
1.143000000000000000e+03 4.456029109958583945e+01
1.144000000000000000e+03 2.548620068464740029e+01
1.145000000000000000e+03 4.782939896265678215e+01
1.146000000000000000e+03 5.675456335403737285e+01
1.147000000000000000e+03 4.483061834024968562e+01
1.148000000000000000e+03 3.218669004149361967e+01
1.149000000000000000e+03 3.458811556016679845e+01
1.150000000000000000e+03 5.738842609958294361e+01
1.151000000000000000e+03 6.641322335403734201e+01
1.152000000000000000e+03 2.766983624481267867e+01
1.153000000000000000e+03 2.586986900415192636e+01
1.154000000000000000e+03 5.505453796680421874e+01
1.155000000000000000e+03 5.946473937759301975e+01
1.156000000000000000e+03 4.096141423236429091e+01
1.157000000000000000e+03 4.698215029045523039e+01
1.158000000000000000e+03 5.290272854771787792e+01
1.159000000000000000e+03 5.173254695020749239e+01
1.160000000000000000e+03 5.248511645228214206e+01
1.161000000000000000e+03 4.646693307053985222e+01
1.162000000000000000e+03 4.391925742738607141e+01
1.163000000000000000e+03 5.080212633540359946e+01
1.164000000000000000e+03 3.605306423236608282e+01
1.165000000000000000e+03 2.499915000000000020e+01
1.166000000000000000e+03 5.798664742738714750e+01
1.167000000000000000e+03 7.085980260869561675e+01
1.168000000000000000e+03 6.741581192946058820e+01
1.169000000000000000e+03 7.988893591286348794e+01
1.170000000000000000e+03 6.894551294605761882e+01
1.171000000000000000e+03 3.998036824016687518e+01
1.172000000000000000e+03 4.131334726141128044e+01
1.173000000000000000e+03 6.525964680497982329e+01
1.174000000000000000e+03 6.954135950207418659e+01
1.175000000000000000e+03 7.455826128364387273e+01
1.176000000000000000e+03 7.184221605809106848e+01
1.177000000000000000e+03 6.933354526971014309e+01
1.178000000000000000e+03 3.284894748962858557e+01
1.179000000000000000e+03 5.025300004140787991e+01
1.180000000000000000e+03 3.513812381742626201e+01
1.181000000000000000e+03 4.824849626555754867e+01
1.182000000000000000e+03 5.776573029045673735e+01
1.183000000000000000e+03 5.313797348547797128e+01
1.184000000000000000e+03 5.922535109958612054e+01
1.185000000000000000e+03 5.701685014522745831e+01
1.186000000000000000e+03 6.604641056016563994e+01
1.187000000000000000e+03 4.585144178423210803e+01
1.188000000000000000e+03 6.594518124481213306e+01
1.189000000000000000e+03 6.551876074688797758e+01
1.190000000000000000e+03 5.935088008298723139e+01
1.191000000000000000e+03 5.971749676348526492e+01
1.192000000000000000e+03 4.208355404564360214e+01
1.193000000000000000e+03 3.045434363070539519e+01
1.194000000000000000e+03 2.721879836099566319e+01
1.195000000000000000e+03 3.676380089211384927e+01
1.196000000000000000e+03 6.014021795031054296e+01
1.197000000000000000e+03 5.777417622406507292e+01
1.198000000000000000e+03 4.452406481327767551e+01
1.199000000000000000e+03 4.893123921161842560e+01
1.200000000000000000e+03 3.052806453416083343e+01
1.201000000000000000e+03 2.651006402489613833e+01
1.202000000000000000e+03 3.906703201244745571e+01
1.203000000000000000e+03 1.437518470954336536e+01
1.204000000000000000e+03 4.244256393375348324e+01
1.205000000000000000e+03 4.805196954357027295e+01
1.206000000000000000e+03 4.587421070539370049e+01
1.207000000000000000e+03 5.595894958506120531e+01
1.208000000000000000e+03 4.004590095238129521e+01
1.209000000000000000e+03 4.371299848547716493e+01
1.210000000000000000e+03 4.207209493775924614e+01
1.211000000000000000e+03 3.596907103734359623e+01
1.212000000000000000e+03 3.032850966804908310e+01
1.213000000000000000e+03 5.598087070539415322e+01
1.214000000000000000e+03 5.598712199170071102e+01
1.215000000000000000e+03 5.925994336099553550e+01
1.216000000000000000e+03 5.635842170124528394e+01
1.217000000000000000e+03 1.846696850622197061e+01
1.218000000000000000e+03 2.590199898755616204e+01
1.219000000000000000e+03 2.591163885269956069e+01
1.220000000000000000e+03 2.005217459543596448e+01
1.221000000000000000e+03 4.220262464731412422e+00
1.222000000000000000e+03 2.091978381742530857e+01
1.223000000000000000e+03 3.128611493776022101e+01
1.224000000000000000e+03 4.839426165975290850e+00
1.225000000000000000e+03 5.137738761904796725e+00
1.226000000000000000e+03 3.348296746887823616e+01
1.227000000000000000e+03 1.924855288381728258e+01
1.228000000000000000e+03 3.319687933610185837e+01
1.229000000000000000e+03 4.045197935817841994e+01
1.230000000000000000e+03 3.110546655601672583e+01
1.231000000000000000e+03 4.027095464730375340e+01
1.232000000000000000e+03 4.102770165974915528e+01
1.233000000000000000e+03 2.128156153526922267e+01
1.234000000000000000e+03 3.552288800829916227e+01
1.235000000000000000e+03 4.557125433609760989e+01
1.236000000000000000e+03 2.422775304979203881e+01
1.237000000000000000e+03 3.997400254658348473e+01
1.238000000000000000e+03 5.372455502074596012e+01
1.239000000000000000e+03 1.199370003319473632e+01
1.240000000000000000e+03 1.049483676348431516e+01
1.241000000000000000e+03 3.661359724637746638e+01
1.242000000000000000e+03 4.378283931535210627e+01
1.243000000000000000e+03 3.595929645228279270e+01
1.244000000000000000e+03 3.544080975103726416e+01
1.245000000000000000e+03 3.923262446058092934e+01
1.246000000000000000e+03 2.975793817427614485e+01
1.247000000000000000e+03 2.041314908713598442e+01
1.248000000000000000e+03 4.137634854771734894e+01
1.249000000000000000e+03 2.509903717842361104e+01
1.250000000000000000e+03 3.634039271784158132e+01
1.251000000000000000e+03 4.834303695020751945e+01
1.252000000000000000e+03 6.108587707468888794e+01
1.253000000000000000e+03 2.761563902489610456e+01
1.254000000000000000e+03 3.382836925311147525e+01
1.255000000000000000e+03 2.824645145228093313e+01
1.256000000000000000e+03 2.686248684647481966e+01
1.257000000000000000e+03 4.056838643153469803e+01
1.258000000000000000e+03 2.774600568464680350e+01
1.259000000000000000e+03 1.409992516597534973e+01
1.260000000000000000e+03 2.885466373444086940e+01
1.261000000000000000e+03 2.237583267634786921e+01
1.262000000000000000e+03 4.036912215767624446e+01
1.263000000000000000e+03 3.029641165974970818e+01
1.264000000000000000e+03 1.101904701244781926e+01
1.265000000000000000e+03 3.422447705394210260e+01
1.266000000000000000e+03 2.162700811594003625e+01
1.267000000000000000e+03 5.095604085062838351e+00
1.268000000000000000e+03 6.605642844398206037e+00
1.269000000000000000e+03 1.411667327800849492e+01
1.270000000000000000e+03 1.945711850931646225e+01
1.271000000000000000e+03 2.587896402489608505e+01
1.272000000000000000e+03 2.994492120331964813e+01
1.273000000000000000e+03 1.967708230290116944e+01
1.274000000000000000e+03 4.938588130433855028e+00
1.275000000000000000e+03 3.640807228215784619e+01
1.276000000000000000e+03 7.898617248962517579e+01
1.277000000000000000e+03 4.282569941909110867e+01
1.278000000000000000e+03 1.258767528008397818e+01
1.279000000000000000e+03 5.225795336099929855e+00
1.280000000000000000e+03 3.197766402489765625e+00
1.281000000000000000e+03 2.111386116182420558e+00
1.282000000000000000e+03 5.082549066390026127e+00
1.283000000000000000e+03 4.154017624481718407e+00
1.284000000000000000e+03 1.006458992323639379e+01
1.285000000000000000e+03 2.520016147302821707e+01
1.286000000000000000e+03 2.706314429460525872e+01
1.287000000000000000e+03 8.561953535267489812e+00
1.288000000000000000e+03 2.957206983402381795e+01
1.289000000000000000e+03 4.038140991701223470e+01
1.290000000000000000e+03 2.369395327800853579e+01
1.291000000000000000e+03 3.451720537344296957e+01
1.292000000000000000e+03 4.627185431535260562e+01
1.293000000000000000e+03 5.004183147302946821e+01
1.294000000000000000e+03 6.993276043568425848e+01
1.295000000000000000e+03 6.779751579710186604e+01
1.296000000000000000e+03 7.889672663900461203e+01
1.297000000000000000e+03 7.523938153526802353e+01
1.298000000000000000e+03 5.353350045643322375e+01
1.299000000000000000e+03 4.248999275362318429e+01
1.300000000000000000e+03 6.426218460581148406e+01
1.301000000000000000e+03 8.483374099585260808e+01
1.302000000000000000e+03 7.135859541493783809e+01
1.303000000000000000e+03 7.700931857142907688e+01
1.304000000000000000e+03 8.500304004149268167e+01
1.305000000000000000e+03 5.250935248962711910e+01
1.306000000000000000e+03 5.486530933609961380e+01
1.307000000000000000e+03 4.615870493775917538e+01
1.308000000000000000e+03 5.626630674273779675e+01
1.309000000000000000e+03 4.485027107883885833e+01
1.310000000000000000e+03 6.718193755185446037e+00
1.311000000000000000e+03 1.300538647925553448e+01
1.312000000000000000e+03 3.059478124481267969e+01
1.313000000000000000e+03 1.840889037344378210e+01
1.314000000000000000e+03 1.729362485476944267e+00
1.315000000000000000e+03 0.000000000000000000e+00
1.316000000000000000e+03 0.000000000000000000e+00
1.317000000000000000e+03 0.000000000000000000e+00
1.318000000000000000e+03 0.000000000000000000e+00
1.319000000000000000e+03 0.000000000000000000e+00
1.320000000000000000e+03 0.000000000000000000e+00
1.321000000000000000e+03 0.000000000000000000e+00
1.322000000000000000e+03 0.000000000000000000e+00
1.323000000000000000e+03 0.000000000000000000e+00
1.324000000000000000e+03 0.000000000000000000e+00
1.325000000000000000e+03 0.000000000000000000e+00
1.326000000000000000e+03 0.000000000000000000e+00
1.327000000000000000e+03 0.000000000000000000e+00
1.328000000000000000e+03 0.000000000000000000e+00
1.329000000000000000e+03 0.000000000000000000e+00
1.330000000000000000e+03 0.000000000000000000e+00
1.331000000000000000e+03 0.000000000000000000e+00
1.332000000000000000e+03 0.000000000000000000e+00
1.333000000000000000e+03 0.000000000000000000e+00
1.334000000000000000e+03 0.000000000000000000e+00
1.335000000000000000e+03 0.000000000000000000e+00
1.336000000000000000e+03 0.000000000000000000e+00
1.337000000000000000e+03 0.000000000000000000e+00
1.338000000000000000e+03 0.000000000000000000e+00
1.339000000000000000e+03 0.000000000000000000e+00
1.340000000000000000e+03 0.000000000000000000e+00
1.341000000000000000e+03 0.000000000000000000e+00
1.342000000000000000e+03 0.000000000000000000e+00
1.343000000000000000e+03 0.000000000000000000e+00
1.344000000000000000e+03 0.000000000000000000e+00
1.345000000000000000e+03 0.000000000000000000e+00
1.346000000000000000e+03 0.000000000000000000e+00
1.347000000000000000e+03 0.000000000000000000e+00
1.348000000000000000e+03 0.000000000000000000e+00
1.349000000000000000e+03 0.000000000000000000e+00
1.350000000000000000e+03 0.000000000000000000e+00
1.351000000000000000e+03 0.000000000000000000e+00
1.352000000000000000e+03 0.000000000000000000e+00
1.353000000000000000e+03 0.000000000000000000e+00
1.354000000000000000e+03 0.000000000000000000e+00
1.355000000000000000e+03 0.000000000000000000e+00
1.356000000000000000e+03 0.000000000000000000e+00
1.357000000000000000e+03 0.000000000000000000e+00
1.358000000000000000e+03 0.000000000000000000e+00
1.359000000000000000e+03 0.000000000000000000e+00
1.360000000000000000e+03 0.000000000000000000e+00
1.361000000000000000e+03 0.000000000000000000e+00
1.362000000000000000e+03 0.000000000000000000e+00
1.363000000000000000e+03 0.000000000000000000e+00
1.364000000000000000e+03 0.000000000000000000e+00
1.365000000000000000e+03 0.000000000000000000e+00
1.366000000000000000e+03 0.000000000000000000e+00
1.367000000000000000e+03 0.000000000000000000e+00
1.368000000000000000e+03 0.000000000000000000e+00
1.369000000000000000e+03 0.000000000000000000e+00
1.370000000000000000e+03 0.000000000000000000e+00
1.371000000000000000e+03 0.000000000000000000e+00
1.372000000000000000e+03 0.000000000000000000e+00
1.373000000000000000e+03 0.000000000000000000e+00
1.374000000000000000e+03 0.000000000000000000e+00
1.375000000000000000e+03 0.000000000000000000e+00
1.376000000000000000e+03 0.000000000000000000e+00
1.377000000000000000e+03 0.000000000000000000e+00
1.378000000000000000e+03 0.000000000000000000e+00
1.379000000000000000e+03 0.000000000000000000e+00
1.380000000000000000e+03 0.000000000000000000e+00
1.381000000000000000e+03 0.000000000000000000e+00
1.382000000000000000e+03 0.000000000000000000e+00
1.383000000000000000e+03 0.000000000000000000e+00
1.384000000000000000e+03 0.000000000000000000e+00
1.385000000000000000e+03 0.000000000000000000e+00
1.386000000000000000e+03 0.000000000000000000e+00
1.387000000000000000e+03 0.000000000000000000e+00
1.388000000000000000e+03 0.000000000000000000e+00
1.389000000000000000e+03 0.000000000000000000e+00
1.390000000000000000e+03 0.000000000000000000e+00
1.391000000000000000e+03 0.000000000000000000e+00
1.392000000000000000e+03 0.000000000000000000e+00
1.393000000000000000e+03 0.000000000000000000e+00
1.394000000000000000e+03 0.000000000000000000e+00
1.395000000000000000e+03 0.000000000000000000e+00
1.396000000000000000e+03 0.000000000000000000e+00
1.397000000000000000e+03 0.000000000000000000e+00
1.398000000000000000e+03 0.000000000000000000e+00
1.399000000000000000e+03 0.000000000000000000e+00
1.400000000000000000e+03 0.000000000000000000e+00
1.401000000000000000e+03 0.000000000000000000e+00
1.402000000000000000e+03 0.000000000000000000e+00
1.403000000000000000e+03 0.000000000000000000e+00
1.404000000000000000e+03 0.000000000000000000e+00
1.405000000000000000e+03 0.000000000000000000e+00
1.406000000000000000e+03 0.000000000000000000e+00
1.407000000000000000e+03 0.000000000000000000e+00
1.408000000000000000e+03 0.000000000000000000e+00
1.409000000000000000e+03 0.000000000000000000e+00
1.410000000000000000e+03 0.000000000000000000e+00
1.411000000000000000e+03 0.000000000000000000e+00
1.412000000000000000e+03 0.000000000000000000e+00
1.413000000000000000e+03 0.000000000000000000e+00
1.414000000000000000e+03 0.000000000000000000e+00
1.415000000000000000e+03 0.000000000000000000e+00
1.416000000000000000e+03 0.000000000000000000e+00
1.417000000000000000e+03 0.000000000000000000e+00
1.418000000000000000e+03 0.000000000000000000e+00
1.419000000000000000e+03 0.000000000000000000e+00
1.420000000000000000e+03 0.000000000000000000e+00
1.421000000000000000e+03 0.000000000000000000e+00
1.422000000000000000e+03 0.000000000000000000e+00
1.423000000000000000e+03 0.000000000000000000e+00
1.424000000000000000e+03 0.000000000000000000e+00
1.425000000000000000e+03 0.000000000000000000e+00
1.426000000000000000e+03 0.000000000000000000e+00
1.427000000000000000e+03 0.000000000000000000e+00
1.428000000000000000e+03 0.000000000000000000e+00
1.429000000000000000e+03 0.000000000000000000e+00
1.430000000000000000e+03 0.000000000000000000e+00
1.431000000000000000e+03 0.000000000000000000e+00
1.432000000000000000e+03 0.000000000000000000e+00
1.433000000000000000e+03 0.000000000000000000e+00
1.434000000000000000e+03 0.000000000000000000e+00
1.435000000000000000e+03 0.000000000000000000e+00
1.436000000000000000e+03 0.000000000000000000e+00
1.437000000000000000e+03 0.000000000000000000e+00
1.438000000000000000e+03 0.000000000000000000e+00
1.439000000000000000e+03 0.000000000000000000e+00
1.440000000000000000e+03 0.000000000000000000e+00
1.441000000000000000e+03 0.000000000000000000e+00
1.442000000000000000e+03 0.000000000000000000e+00
1.443000000000000000e+03 0.000000000000000000e+00
1.444000000000000000e+03 0.000000000000000000e+00
1.445000000000000000e+03 0.000000000000000000e+00
1.446000000000000000e+03 0.000000000000000000e+00
1.447000000000000000e+03 0.000000000000000000e+00
1.448000000000000000e+03 0.000000000000000000e+00
1.449000000000000000e+03 0.000000000000000000e+00
1.450000000000000000e+03 0.000000000000000000e+00
1.451000000000000000e+03 0.000000000000000000e+00
1.452000000000000000e+03 0.000000000000000000e+00
1.453000000000000000e+03 0.000000000000000000e+00
1.454000000000000000e+03 0.000000000000000000e+00
1.455000000000000000e+03 0.000000000000000000e+00
1.456000000000000000e+03 0.000000000000000000e+00
1.457000000000000000e+03 0.000000000000000000e+00
1.458000000000000000e+03 0.000000000000000000e+00
1.459000000000000000e+03 0.000000000000000000e+00
1.460000000000000000e+03 0.000000000000000000e+00
1.461000000000000000e+03 0.000000000000000000e+00
1.462000000000000000e+03 0.000000000000000000e+00
1.463000000000000000e+03 0.000000000000000000e+00
1.464000000000000000e+03 0.000000000000000000e+00
1.465000000000000000e+03 0.000000000000000000e+00
1.466000000000000000e+03 0.000000000000000000e+00
1.467000000000000000e+03 0.000000000000000000e+00
1.468000000000000000e+03 0.000000000000000000e+00
1.469000000000000000e+03 0.000000000000000000e+00
1.470000000000000000e+03 0.000000000000000000e+00
1.471000000000000000e+03 0.000000000000000000e+00
1.472000000000000000e+03 0.000000000000000000e+00
1.473000000000000000e+03 0.000000000000000000e+00
1.474000000000000000e+03 0.000000000000000000e+00
1.475000000000000000e+03 0.000000000000000000e+00
1.476000000000000000e+03 0.000000000000000000e+00
1.477000000000000000e+03 0.000000000000000000e+00
1.478000000000000000e+03 0.000000000000000000e+00
1.479000000000000000e+03 0.000000000000000000e+00
1.480000000000000000e+03 0.000000000000000000e+00
1.481000000000000000e+03 0.000000000000000000e+00
1.482000000000000000e+03 0.000000000000000000e+00
1.483000000000000000e+03 0.000000000000000000e+00
1.484000000000000000e+03 0.000000000000000000e+00
1.485000000000000000e+03 0.000000000000000000e+00
1.486000000000000000e+03 0.000000000000000000e+00
1.487000000000000000e+03 0.000000000000000000e+00
1.488000000000000000e+03 0.000000000000000000e+00
1.489000000000000000e+03 0.000000000000000000e+00
1.490000000000000000e+03 0.000000000000000000e+00
1.491000000000000000e+03 0.000000000000000000e+00
1.492000000000000000e+03 0.000000000000000000e+00
1.493000000000000000e+03 0.000000000000000000e+00
1.494000000000000000e+03 0.000000000000000000e+00
1.495000000000000000e+03 0.000000000000000000e+00
1.496000000000000000e+03 0.000000000000000000e+00
1.497000000000000000e+03 0.000000000000000000e+00
1.498000000000000000e+03 0.000000000000000000e+00
1.499000000000000000e+03 0.000000000000000000e+00
1.500000000000000000e+03 0.000000000000000000e+00
