1.010000000000000000e+02 0.000000000000000000e+00
1.020000000000000000e+02 0.000000000000000000e+00
1.030000000000000000e+02 0.000000000000000000e+00
1.040000000000000000e+02 0.000000000000000000e+00
1.050000000000000000e+02 0.000000000000000000e+00
1.060000000000000000e+02 0.000000000000000000e+00
1.070000000000000000e+02 0.000000000000000000e+00
1.080000000000000000e+02 0.000000000000000000e+00
1.090000000000000000e+02 0.000000000000000000e+00
1.100000000000000000e+02 0.000000000000000000e+00
1.110000000000000000e+02 0.000000000000000000e+00
1.120000000000000000e+02 0.000000000000000000e+00
1.130000000000000000e+02 0.000000000000000000e+00
1.140000000000000000e+02 0.000000000000000000e+00
1.150000000000000000e+02 0.000000000000000000e+00
1.160000000000000000e+02 0.000000000000000000e+00
1.170000000000000000e+02 0.000000000000000000e+00
1.180000000000000000e+02 0.000000000000000000e+00
1.190000000000000000e+02 0.000000000000000000e+00
1.200000000000000000e+02 0.000000000000000000e+00
1.210000000000000000e+02 0.000000000000000000e+00
1.220000000000000000e+02 0.000000000000000000e+00
1.230000000000000000e+02 0.000000000000000000e+00
1.240000000000000000e+02 0.000000000000000000e+00
1.250000000000000000e+02 0.000000000000000000e+00
1.260000000000000000e+02 0.000000000000000000e+00
1.270000000000000000e+02 0.000000000000000000e+00
1.280000000000000000e+02 0.000000000000000000e+00
1.290000000000000000e+02 0.000000000000000000e+00
1.300000000000000000e+02 0.000000000000000000e+00
1.310000000000000000e+02 0.000000000000000000e+00
1.320000000000000000e+02 0.000000000000000000e+00
1.330000000000000000e+02 0.000000000000000000e+00
1.340000000000000000e+02 0.000000000000000000e+00
1.350000000000000000e+02 0.000000000000000000e+00
1.360000000000000000e+02 0.000000000000000000e+00
1.370000000000000000e+02 0.000000000000000000e+00
1.380000000000000000e+02 0.000000000000000000e+00
1.390000000000000000e+02 0.000000000000000000e+00
1.400000000000000000e+02 0.000000000000000000e+00
1.410000000000000000e+02 0.000000000000000000e+00
1.420000000000000000e+02 0.000000000000000000e+00
1.430000000000000000e+02 0.000000000000000000e+00
1.440000000000000000e+02 0.000000000000000000e+00
1.450000000000000000e+02 0.000000000000000000e+00
1.460000000000000000e+02 0.000000000000000000e+00
1.470000000000000000e+02 0.000000000000000000e+00
1.480000000000000000e+02 0.000000000000000000e+00
1.490000000000000000e+02 0.000000000000000000e+00
1.500000000000000000e+02 0.000000000000000000e+00
1.510000000000000000e+02 0.000000000000000000e+00
1.520000000000000000e+02 0.000000000000000000e+00
1.530000000000000000e+02 0.000000000000000000e+00
1.540000000000000000e+02 0.000000000000000000e+00
1.550000000000000000e+02 1.306570353868537993e+01
1.560000000000000000e+02 1.703378448454676430e+01
1.570000000000000000e+02 4.187976545322462130e+01
1.580000000000000000e+02 1.349904238954575248e+02
1.590000000000000000e+02 1.781600962455920865e+02
1.600000000000000000e+02 7.899853438290810459e+01
1.610000000000000000e+02 1.275760474922209085e+02
1.620000000000000000e+02 1.508595828873683899e+02
1.630000000000000000e+02 7.670036393279352183e+01
1.640000000000000000e+02 1.049415370047708223e+02
1.650000000000000000e+02 1.047748848506844013e+02
1.660000000000000000e+02 9.274496566687417953e+01
1.670000000000000000e+02 8.706320384567506210e+01
1.680000000000000000e+02 8.998036099129011234e+01
1.690000000000000000e+02 1.476931332296202584e+02
1.700000000000000000e+02 1.730411568554242194e+02
1.710000000000000000e+02 2.738677738697635391e+02
1.720000000000000000e+02 5.666015243310533833e+02
1.730000000000000000e+02 7.892394329807095801e+02
1.740000000000000000e+02 9.174771052675230294e+02
1.750000000000000000e+02 1.012487134826798183e+03
1.760000000000000000e+02 1.063588204107031743e+03
1.770000000000000000e+02 1.000356430236416372e+03
1.780000000000000000e+02 8.689930197261986677e+02
1.790000000000000000e+02 6.765269705870174448e+02
1.800000000000000000e+02 4.685525450321496805e+02
1.810000000000000000e+02 3.543206130678278782e+02
1.820000000000000000e+02 2.658856546567103578e+02
1.830000000000000000e+02 1.627938088155996184e+02
1.840000000000000000e+02 7.353181836133528293e+01
1.850000000000000000e+02 5.832938372121961379e+01
1.860000000000000000e+02 4.923086455412692430e+01
1.870000000000000000e+02 8.719992030284579698e+00
1.880000000000000000e+02 9.867319833229911907e+00
1.890000000000000000e+02 2.979764079220248973e+01
1.900000000000000000e+02 5.303745682016197094e+01
1.910000000000000000e+02 2.742359025098469871e+01
1.920000000000000000e+02 1.265477591163662794e+02
1.930000000000000000e+02 1.069914501763123695e+02
1.940000000000000000e+02 1.587055112009957725e+02
1.950000000000000000e+02 1.573746957685127938e+02
1.960000000000000000e+02 2.181509676000814579e+02
1.970000000000000000e+02 3.224655965152458066e+02
1.980000000000000000e+02 2.746750720182532177e+02
1.990000000000000000e+02 2.590300159925326398e+02
2.000000000000000000e+02 3.425059699232515982e+02
2.010000000000000000e+02 4.446726537855220727e+02
2.020000000000000000e+02 4.702715837378141259e+02
2.030000000000000000e+02 6.004910596764160573e+02
2.040000000000000000e+02 8.292576934038565923e+02
2.050000000000000000e+02 1.063569860817256085e+03
2.060000000000000000e+02 1.261125843218584805e+03
2.070000000000000000e+02 1.578564197469405372e+03
2.080000000000000000e+02 1.789779121344118948e+03
2.090000000000000000e+02 1.945101686229778352e+03
2.100000000000000000e+02 2.039537026965359246e+03
2.110000000000000000e+02 1.900883327317982548e+03
2.120000000000000000e+02 1.636761578598092456e+03
2.130000000000000000e+02 1.399109896701930666e+03
2.140000000000000000e+02 1.155672846712298451e+03
2.150000000000000000e+02 8.345372648278705583e+02
2.160000000000000000e+02 6.961778469197261074e+02
2.170000000000000000e+02 6.308151480398259991e+02
2.180000000000000000e+02 5.444997372121987382e+02
2.190000000000000000e+02 4.216648216760005425e+02
2.200000000000000000e+02 4.026618525409665494e+02
2.210000000000000000e+02 3.548877802945449957e+02
2.220000000000000000e+02 3.122059707529559773e+02
2.230000000000000000e+02 2.862361745903333485e+02
2.240000000000000000e+02 2.346134952084628083e+02
2.250000000000000000e+02 1.817519034225265102e+02
2.260000000000000000e+02 2.731859021779696377e+02
2.270000000000000000e+02 3.549101124844461310e+02
2.280000000000000000e+02 2.506244327317979241e+02
2.290000000000000000e+02 2.903134272764987145e+02
2.300000000000000000e+02 3.622836363542093068e+02
2.310000000000000000e+02 4.386667426260100910e+02
2.320000000000000000e+02 4.967900649450318156e+02
2.330000000000000000e+02 4.581164756067205417e+02
2.340000000000000000e+02 4.806023756689482980e+02
2.350000000000000000e+02 4.610693556938402935e+02
2.360000000000000000e+02 3.525208714374595047e+02
2.370000000000000000e+02 2.003950947106405351e+02
2.380000000000000000e+02 1.712511908317776488e+02
2.390000000000000000e+02 1.248342890479162008e+02
2.400000000000000000e+02 1.049224306471687527e+02
2.410000000000000000e+02 1.450372477909148188e+02
2.420000000000000000e+02 8.425047066168852439e+01
2.430000000000000000e+02 1.357575120721834310e+02
2.440000000000000000e+02 1.544668215055989435e+02
2.450000000000000000e+02 1.204615160547610628e+02
2.460000000000000000e+02 1.913067024061398058e+02
2.470000000000000000e+02 1.479867971582665120e+02
2.480000000000000000e+02 4.121645952375084931e+01
2.490000000000000000e+02 2.013887409085219105e+01
2.500000000000000000e+02 3.202580350342250171e+01
2.510000000000000000e+02 4.209538258452579385e+01
2.520000000000000000e+02 3.860843064924338108e+01
2.530000000000000000e+02 2.089348616262206804e+01
2.540000000000000000e+02 3.999985263845681516e+01
2.550000000000000000e+02 4.053598749014727076e+01
2.560000000000000000e+02 4.427928404687818187e+01
2.570000000000000000e+02 6.577147888197421821e+01
2.580000000000000000e+02 8.258897072806459505e+01
2.590000000000000000e+02 6.489179021779713707e+01
2.600000000000000000e+02 6.222330411325457078e+01
2.610000000000000000e+02 4.869535364371653685e+01
2.620000000000000000e+02 2.480528001535076399e+01
2.630000000000000000e+02 1.358090948350965448e+02
2.640000000000000000e+02 1.350046462463707257e+02
2.650000000000000000e+02 1.354728134826802091e+02
2.660000000000000000e+02 1.853820814146451994e+02
2.670000000000000000e+02 2.776572507258384235e+02
2.680000000000000000e+02 3.657576454262616608e+02
2.690000000000000000e+02 3.732882595727028843e+02
2.700000000000000000e+02 4.877218861883012551e+02
2.710000000000000000e+02 5.819494961003931621e+02
2.720000000000000000e+02 6.059699697573071262e+02
2.730000000000000000e+02 7.833446175482253011e+02
2.740000000000000000e+02 8.974892820161780946e+02
2.750000000000000000e+02 9.569967561501756563e+02
2.760000000000000000e+02 1.016628452810620274e+03
2.770000000000000000e+02 1.113532123833229207e+03
2.780000000000000000e+02 1.176961465671022324e+03
2.790000000000000000e+02 1.194216394523957661e+03
2.800000000000000000e+02 1.154860398672474275e+03
2.810000000000000000e+02 1.038350729309272310e+03
2.820000000000000000e+02 8.277923176104504819e+02
2.830000000000000000e+02 6.406703350964510264e+02
2.840000000000000000e+02 4.360911133997081492e+02
2.850000000000000000e+02 2.517922969508361746e+02
2.860000000000000000e+02 1.660669280647166488e+02
2.870000000000000000e+02 1.716128492428952939e+02
2.880000000000000000e+02 1.158173420945663139e+02
2.890000000000000000e+02 1.112540487907061220e+02
2.900000000000000000e+02 1.641663616677025175e+02
2.910000000000000000e+02 8.006438062422205348e+01
2.920000000000000000e+02 8.526685363410014418e+01
2.930000000000000000e+02 7.163540580792499668e+01
2.940000000000000000e+02 4.426452958523424286e+01
2.950000000000000000e+02 6.424844454884868128e+01
2.960000000000000000e+02 5.543913504252248003e+01
2.970000000000000000e+02 7.573519122978019880e+01
2.980000000000000000e+02 1.112202365753992410e+02
2.990000000000000000e+02 1.208374142812697727e+02
3.000000000000000000e+02 7.112415837585508882e+01
3.010000000000000000e+02 3.576943621032969389e+01
3.020000000000000000e+02 3.663083864758353059e+01
3.030000000000000000e+02 5.532356522713159563e+01
3.040000000000000000e+02 7.626557029247113917e+01
3.050000000000000000e+02 1.157443656917653527e+02
3.060000000000000000e+02 5.884569871811071096e+01
3.070000000000000000e+02 5.284875107654184490e+01
3.080000000000000000e+02 9.315805245177321581e+01
3.090000000000000000e+02 5.590606011823319932e+01
3.100000000000000000e+02 1.125223403650676204e+02
3.110000000000000000e+02 1.465530148724334083e+02
3.120000000000000000e+02 2.059255937772237246e+02
3.130000000000000000e+02 3.045946402613569717e+02
3.140000000000000000e+02 2.897350360223957750e+02
3.150000000000000000e+02 4.331457626633477389e+02
3.160000000000000000e+02 4.994042062020328672e+02
3.170000000000000000e+02 5.166467445458313250e+02
3.180000000000000000e+02 6.505995887990060282e+02
3.190000000000000000e+02 8.906563148309485314e+02
3.200000000000000000e+02 1.035152500829532300e+03
3.210000000000000000e+02 1.115599460277952176e+03
3.220000000000000000e+02 1.149979922215307852e+03
3.230000000000000000e+02 1.081407733305683905e+03
3.240000000000000000e+02 9.834520156606489536e+02
3.250000000000000000e+02 9.852792838830131359e+02
3.260000000000000000e+02 1.014038365899191490e+03
3.270000000000000000e+02 9.974713317983811294e+02
3.280000000000000000e+02 1.036105677867662052e+03
3.290000000000000000e+02 1.010164875544493043e+03
3.300000000000000000e+02 1.039507764156812527e+03
3.310000000000000000e+02 1.120286780336028869e+03
3.320000000000000000e+02 1.165892017423770994e+03
3.330000000000000000e+02 1.225414146857498281e+03
3.340000000000000000e+02 1.240974801908317886e+03
3.350000000000000000e+02 1.318724204936736442e+03
3.360000000000000000e+02 1.436437003733665279e+03
3.370000000000000000e+02 1.398391193943165263e+03
3.380000000000000000e+02 1.511214146027797824e+03
3.390000000000000000e+02 1.522738113047085108e+03
3.400000000000000000e+02 1.530184979676483636e+03
3.410000000000000000e+02 1.662283222153080715e+03
3.420000000000000000e+02 1.650259816220701396e+03
3.430000000000000000e+02 1.698493364993778869e+03
3.440000000000000000e+02 1.751219641153287284e+03
3.450000000000000000e+02 1.785797067205973690e+03
3.460000000000000000e+02 1.837409372459560700e+03
3.470000000000000000e+02 1.885069976768304514e+03
3.480000000000000000e+02 1.995052383945236897e+03
3.490000000000000000e+02 2.119912809829945218e+03
3.500000000000000000e+02 2.229770378344741403e+03
3.510000000000000000e+02 2.387352659614185995e+03
3.520000000000000000e+02 2.857736900456246531e+03
3.530000000000000000e+02 3.117577724538477923e+03
3.540000000000000000e+02 3.343402164281268597e+03
3.550000000000000000e+02 3.731033353453645759e+03
3.560000000000000000e+02 4.026974808960800601e+03
3.570000000000000000e+02 4.406358088570838845e+03
3.580000000000000000e+02 4.874354382078420713e+03
3.590000000000000000e+02 5.362150067205983760e+03
3.600000000000000000e+02 5.823312062435186817e+03
3.610000000000000000e+02 6.289344058286653308e+03
3.620000000000000000e+02 6.586507231072386276e+03
3.630000000000000000e+02 6.763985359676419648e+03
3.640000000000000000e+02 6.851443467330428575e+03
3.650000000000000000e+02 6.782124326695708987e+03
3.660000000000000000e+02 6.319925340800677077e+03
3.670000000000000000e+02 5.619963075088158803e+03
3.680000000000000000e+02 4.969143499066588447e+03
3.690000000000000000e+02 4.440481139597602123e+03
3.700000000000000000e+02 3.878680628369977967e+03
3.710000000000000000e+02 3.386067536610662046e+03
3.720000000000000000e+02 2.971585899191041335e+03
3.730000000000000000e+02 2.704939778100373132e+03
3.740000000000000000e+02 2.543931478738848909e+03
3.750000000000000000e+02 2.233977150798588809e+03
3.760000000000000000e+02 2.013088287847363517e+03
3.770000000000000000e+02 1.921157934038580606e+03
3.780000000000000000e+02 1.873617743829080382e+03
3.790000000000000000e+02 1.789322295727915844e+03
3.800000000000000000e+02 1.712335610246837405e+03
3.810000000000000000e+02 1.776278211574362786e+03
3.820000000000000000e+02 1.717403163658995709e+03
3.830000000000000000e+02 1.528460013275257097e+03
3.840000000000000000e+02 1.385716990043561282e+03
3.850000000000000000e+02 1.179728861024685557e+03
3.860000000000000000e+02 9.714213382078434051e+02
3.870000000000000000e+02 8.390844434972011641e+02
3.880000000000000000e+02 7.622572324414021523e+02
3.890000000000000000e+02 6.500963910599466544e+02
3.900000000000000000e+02 5.353427857498454614e+02
3.910000000000000000e+02 4.990098078406969080e+02
3.920000000000000000e+02 5.187523575606721806e+02
3.930000000000000000e+02 5.385410022401991910e+02
3.940000000000000000e+02 4.714719303878845267e+02
3.950000000000000000e+02 3.725284117610444241e+02
3.960000000000000000e+02 3.286470984653670939e+02
3.970000000000000000e+02 3.234083206181292098e+02
3.980000000000000000e+02 3.063170421904156910e+02
3.990000000000000000e+02 2.462314798423890068e+02
4.000000000000000000e+02 2.329410556938391608e+02
4.010000000000000000e+02 2.811511744036511686e+02
4.020000000000000000e+02 3.335379953546247407e+02
4.030000000000000000e+02 3.379448562953745068e+02
4.040000000000000000e+02 3.133259275046677317e+02
4.050000000000000000e+02 2.605991065532975313e+02
4.060000000000000000e+02 2.074811520016596376e+02
4.070000000000000000e+02 1.908144464122767090e+02
4.080000000000000000e+02 2.172030430201201909e+02
4.090000000000000000e+02 1.904280591163656595e+02
4.100000000000000000e+02 1.242500024885936938e+02
4.110000000000000000e+02 1.268773247251620546e+02
4.120000000000000000e+02 1.682580532669570346e+02
4.130000000000000000e+02 1.547768765242639120e+02
4.140000000000000000e+02 1.410072517112631942e+02
4.150000000000000000e+02 9.210468010786019022e+01
4.160000000000000000e+02 9.147529336374923048e+01
4.170000000000000000e+02 1.148540104957479002e+02
4.180000000000000000e+02 8.854812787803432172e+01
4.190000000000000000e+02 6.750671464122775944e+01
4.200000000000000000e+02 1.050916295084000609e+02
4.210000000000000000e+02 1.809992337274411796e+02
4.220000000000000000e+02 2.096772092511925507e+02
4.230000000000000000e+02 1.004044015556944487e+02
4.240000000000000000e+02 6.989541835303755590e+01
4.250000000000000000e+02 1.505893315909564194e+02
4.260000000000000000e+02 1.211814109271930135e+02
4.270000000000000000e+02 4.997286739887991303e+01
4.280000000000000000e+02 3.215985678904746692e+01
4.290000000000000000e+02 1.345356579132979036e+01
4.300000000000000000e+02 8.128674589504323933e+01
4.310000000000000000e+02 1.312813553827011219e+02
4.320000000000000000e+02 1.525055031113883217e+02
4.330000000000000000e+02 1.911907864136076682e+02
4.340000000000000000e+02 1.950362889442033349e+02
4.350000000000000000e+02 1.317358374403669643e+02
4.360000000000000000e+02 9.430774861053539837e+01
4.370000000000000000e+02 8.238261085252111116e+01
4.380000000000000000e+02 1.232759594275049331e+01
4.390000000000000000e+02 2.582103211323079961e+01
4.400000000000000000e+02 5.802996196432265208e+01
4.410000000000000000e+02 5.170686618543911095e+01
4.420000000000000000e+02 6.473534715885465474e+00
4.430000000000000000e+02 1.516537817880115924e+01
4.440000000000000000e+02 2.247246364032358557e+01
4.450000000000000000e+02 2.762264999709760360e+01
4.460000000000000000e+02 2.329057354698141324e+01
4.470000000000000000e+02 1.281518170109942503e+02
4.480000000000000000e+02 9.003593316117071765e+01
4.490000000000000000e+02 5.518641393694146302e+01
4.500000000000000000e+02 2.788230529683079340e+01
4.510000000000000000e+02 2.119438348330395172e+01
4.520000000000000000e+02 8.579557962248604497e+01
4.530000000000000000e+02 9.276246642605670445e+00
4.540000000000000000e+02 5.709249972619957703e+01
4.550000000000000000e+02 5.414682073428797793e+01
4.560000000000000000e+02 9.717732579340128041e+01
4.570000000000000000e+02 6.594717530802802230e+01
4.580000000000000000e+02 1.766530165318393415e+02
4.590000000000000000e+02 1.822819466085857982e+02
4.600000000000000000e+02 8.039672059323658004e+01
4.610000000000000000e+02 1.467757434764572793e+02
4.620000000000000000e+02 2.072870751296427159e+02
4.630000000000000000e+02 2.185132120696804350e+02
4.640000000000000000e+02 1.408883996266364704e+02
4.650000000000000000e+02 1.362222039410908963e+02
4.660000000000000000e+02 1.683709071339689274e+02
4.670000000000000000e+02 2.421953939431647029e+02
4.680000000000000000e+02 2.171283377100191103e+02
4.690000000000000000e+02 1.958023689962639935e+02
4.700000000000000000e+02 2.722794590748826522e+02
4.710000000000000000e+02 3.064809252437239024e+02
4.720000000000000000e+02 2.634532652426379968e+02
4.730000000000000000e+02 3.025678219041687385e+02
4.740000000000000000e+02 2.825912353661073553e+02
4.750000000000000000e+02 2.889618270483300080e+02
4.760000000000000000e+02 3.334478858328139950e+02
4.770000000000000000e+02 3.757153011200994115e+02
4.780000000000000000e+02 3.651197422526445848e+02
4.790000000000000000e+02 3.110067123418379538e+02
4.800000000000000000e+02 2.823979649865173656e+02
4.810000000000000000e+02 3.202891893797974490e+02
4.820000000000000000e+02 3.216444354698190864e+02
4.830000000000000000e+02 2.406317255548641469e+02
4.840000000000000000e+02 2.588438839244976180e+02
4.850000000000000000e+02 2.588310767475626903e+02
4.860000000000000000e+02 2.966053731798387503e+02
4.870000000000000000e+02 3.753405292470463337e+02
4.880000000000000000e+02 4.615270063679749910e+02
4.890000000000000000e+02 5.382144990045638906e+02
4.900000000000000000e+02 6.683254069072783068e+02
4.910000000000000000e+02 7.529791608587419205e+02
4.920000000000000000e+02 7.978025304230616257e+02
4.930000000000000000e+02 7.902132025513391227e+02
4.940000000000000000e+02 6.567383799834079809e+02
4.950000000000000000e+02 5.731749739527172096e+02
4.960000000000000000e+02 5.305065270068452037e+02
4.970000000000000000e+02 4.792659192491190083e+02
4.980000000000000000e+02 4.017570513894644932e+02
4.990000000000000000e+02 3.122627573117605380e+02
5.000000000000000000e+02 1.892390410080896004e+02
5.010000000000000000e+02 2.347909906036103678e+02
5.020000000000000000e+02 2.135298344949160594e+02
5.030000000000000000e+02 1.101023748392450727e+02
5.040000000000000000e+02 1.252194438290809018e+02
5.050000000000000000e+02 1.320645473553202009e+02
5.060000000000000000e+02 9.620706916407350207e+01
5.070000000000000000e+02 1.653108952499445650e+02
5.080000000000000000e+02 3.470684731798336315e+02
5.090000000000000000e+02 4.845824404480411545e+02
5.100000000000000000e+02 4.559039885500937430e+02
5.110000000000000000e+02 5.261058284173388984e+02
5.120000000000000000e+02 5.323763049782190819e+02
5.130000000000000000e+02 4.655500732420646841e+02
5.140000000000000000e+02 4.077661667703765147e+02
5.150000000000000000e+02 3.219765955818280077e+02
5.160000000000000000e+02 2.990418026337612787e+02
5.170000000000000000e+02 2.807379893797988757e+02
5.180000000000000000e+02 1.748865667703717577e+02
5.190000000000000000e+02 1.939444847780844228e+01
5.200000000000000000e+02 1.127579260900255598e+01
5.210000000000000000e+02 3.168236126737049929e+01
5.220000000000000000e+02 9.375157645167905685e+01
5.230000000000000000e+02 1.142497778469197698e+02
5.240000000000000000e+02 9.196412837170719001e+01
5.250000000000000000e+02 8.027942965989223012e+01
5.260000000000000000e+02 1.099283642024482788e+02
5.270000000000000000e+02 1.107553527691348592e+02
5.280000000000000000e+02 1.518025540759205683e+02
5.290000000000000000e+02 1.700231747355295511e+02
5.300000000000000000e+02 1.115965525617101548e+02
5.310000000000000000e+02 1.648107074465889070e+02
5.320000000000000000e+02 1.643192688238951575e+02
5.330000000000000000e+02 1.852491692802330761e+02
5.340000000000000000e+02 1.850744155776835385e+02
5.350000000000000000e+02 1.572891164488708000e+02
5.360000000000000000e+02 2.394090053515875240e+02
5.370000000000000000e+02 2.150287766023650420e+02
5.380000000000000000e+02 1.877432677245385833e+02
5.390000000000000000e+02 2.030934167185227750e+02
5.400000000000000000e+02 2.327057291640740857e+02
5.410000000000000000e+02 2.421270640323586179e+02
5.420000000000000000e+02 2.981232321858149135e+02
5.430000000000000000e+02 2.593484219456533424e+02
5.440000000000000000e+02 2.393817897946487960e+02
5.450000000000000000e+02 2.987974521775205972e+02
5.460000000000000000e+02 3.985695462352221625e+02
5.470000000000000000e+02 4.741626170711477926e+02
5.480000000000000000e+02 6.072343159684792226e+02
5.490000000000000000e+02 7.340141956233161409e+02
5.500000000000000000e+02 8.410186451773495264e+02
5.510000000000000000e+02 9.451484250933235671e+02
5.520000000000000000e+02 1.065241069487659615e+03
5.530000000000000000e+02 1.275616925741547448e+03
5.540000000000000000e+02 1.567327382413940313e+03
5.550000000000000000e+02 1.848034574984444362e+03
5.560000000000000000e+02 2.144923126114915704e+03
5.570000000000000000e+02 2.561294985480195919e+03
5.580000000000000000e+02 3.028409483717071907e+03
5.590000000000000000e+02 3.529695833851893894e+03
5.600000000000000000e+02 4.029490385812075601e+03
5.610000000000000000e+02 4.447750824725159873e+03
5.620000000000000000e+02 4.718847878241025683e+03
5.630000000000000000e+02 4.803444482679941757e+03
5.640000000000000000e+02 4.556431265712510140e+03
5.650000000000000000e+02 4.076645643020129228e+03
5.660000000000000000e+02 3.503899500518565219e+03
5.670000000000000000e+02 2.932359145405523122e+03
5.680000000000000000e+02 2.417552485376487311e+03
5.690000000000000000e+02 2.101282374611076648e+03
5.700000000000000000e+02 1.674129901057872075e+03
5.710000000000000000e+02 1.339264274216967351e+03
5.720000000000000000e+02 1.194008509023024544e+03
5.730000000000000000e+02 1.115112098942124248e+03
5.740000000000000000e+02 9.250589290603613790e+02
5.750000000000000000e+02 8.841425413192287124e+02
5.760000000000000000e+02 7.748165992117855012e+02
5.770000000000000000e+02 6.866520453432897284e+02
5.780000000000000000e+02 6.506325125077797793e+02
5.790000000000000000e+02 5.362453061190653898e+02
5.800000000000000000e+02 4.382971809375657131e+02
5.810000000000000000e+02 3.981450067413404099e+02
5.820000000000000000e+02 3.767986115304858572e+02
5.830000000000000000e+02 3.669166028624766227e+02
5.840000000000000000e+02 3.605092368803155409e+02
5.850000000000000000e+02 2.995981499792647469e+02
5.860000000000000000e+02 1.802672106409442847e+02
5.870000000000000000e+02 1.515212850653394412e+02
5.880000000000000000e+02 1.403487848403168243e+02
5.890000000000000000e+02 1.018299159261567439e+02
5.900000000000000000e+02 1.117862363824921488e+02
5.910000000000000000e+02 1.725045919120685483e+02
5.920000000000000000e+02 1.472646222153096005e+02
5.930000000000000000e+02 1.773139866210299829e+02
5.940000000000000000e+02 2.136856899211947507e+02
5.950000000000000000e+02 1.867047980916822212e+02
5.960000000000000000e+02 2.382181451773507206e+02
5.970000000000000000e+02 1.813443054760423365e+02
5.980000000000000000e+02 2.654550318813508625e+02
5.990000000000000000e+02 2.999392377100198246e+02
6.000000000000000000e+02 2.556978289981337298e+02
6.010000000000000000e+02 3.031111703795896233e+02
6.020000000000000000e+02 3.063818148102049577e+02
6.030000000000000000e+02 1.791784654013642353e+02
6.040000000000000000e+02 1.233366617714174822e+02
6.050000000000000000e+02 8.583665807093700550e+01
6.060000000000000000e+02 2.760541508400739019e+01
6.070000000000000000e+02 8.609014521675766218e+01
6.080000000000000000e+02 6.108551426259862183e+01
6.090000000000000000e+02 2.584426275668693762e+01
6.100000000000000000e+02 3.997462722464416629e+01
6.110000000000000000e+02 1.400154681667236467e+01
6.120000000000000000e+02 2.773769413607206857e+01
6.130000000000000000e+02 2.018968046878157807e+01
6.140000000000000000e+02 4.968224525093276611e+01
6.150000000000000000e+02 1.400276441817054263e+02
6.160000000000000000e+02 9.978873978842520387e+01
6.170000000000000000e+02 5.214589233098405430e+01
6.180000000000000000e+02 4.872582504874445419e+01
6.190000000000000000e+02 2.291197366521429757e+01
6.200000000000000000e+02 6.756527817088600329e+01
6.210000000000000000e+02 3.106819785936114187e+01
6.220000000000000000e+02 2.647262930512466284e+01
6.230000000000000000e+02 1.806137128770054545e+01
6.240000000000000000e+02 1.581606504667029078e+01
6.250000000000000000e+02 8.787909029662230864e+01
6.260000000000000000e+02 1.247907487865586518e+02
6.270000000000000000e+02 1.453380195809988891e+02
6.280000000000000000e+02 1.366503387678922365e+02
6.290000000000000000e+02 9.339133884256375495e+01
6.300000000000000000e+02 1.374460667081517045e+02
6.310000000000000000e+02 1.386509065131716056e+02
6.320000000000000000e+02 1.483821857705874550e+02
6.330000000000000000e+02 2.031503270068466236e+02
6.340000000000000000e+02 2.385253760837999266e+02
6.350000000000000000e+02 1.890894681601308775e+02
6.360000000000000000e+02 1.744492853764766664e+02
6.370000000000000000e+02 1.308781111157192356e+02
6.380000000000000000e+02 1.451947673304323416e+02
6.390000000000000000e+02 2.554526324621506888e+02
6.400000000000000000e+02 3.798377088137710871e+02
6.410000000000000000e+02 4.003090985272748412e+02
6.420000000000000000e+02 4.723041448039847410e+02
6.430000000000000000e+02 5.064117668602249864e+02
6.440000000000000000e+02 6.168751574984427180e+02
6.450000000000000000e+02 7.655514586807704518e+02
6.460000000000000000e+02 9.095720918083795823e+02
6.470000000000000000e+02 1.122512033602989050e+03
6.480000000000000000e+02 1.191142608380004503e+03
6.490000000000000000e+02 1.176587036499376836e+03
6.500000000000000000e+02 1.080733476664588807e+03
6.510000000000000000e+02 9.762539973242056703e+02
6.520000000000000000e+02 8.698100816428042208e+02
6.530000000000000000e+02 6.063803021779665414e+02
6.540000000000000000e+02 4.439802669155761237e+02
6.550000000000000000e+02 3.459149973864320486e+02
6.560000000000000000e+02 2.686322419917007664e+02
6.570000000000000000e+02 1.981441579340378780e+02
6.580000000000000000e+02 1.625320969923252505e+02
6.590000000000000000e+02 2.256206571873052553e+02
6.600000000000000000e+02 1.518111297448656103e+02
6.610000000000000000e+02 6.933569458411145092e+01
6.620000000000000000e+02 1.724098869114359900e+01
6.630000000000000000e+02 4.539292667911243484e+01
6.640000000000000000e+02 1.501949273802114533e+02
6.650000000000000000e+02 8.326040026337736322e+01
6.660000000000000000e+02 7.768096625181483361e+00
6.670000000000000000e+02 3.566156977805342621e+01
6.680000000000000000e+02 8.267088635006214759e+01
6.690000000000000000e+02 7.860651181705051727e+01
6.700000000000000000e+02 6.658415444098726255e+01
6.710000000000000000e+02 7.595388215470772764e+01
6.720000000000000000e+02 1.312200241485249919e+01
6.730000000000000000e+02 3.998711215930251939e+01
6.740000000000000000e+02 5.503249015761038265e+01
6.750000000000000000e+02 1.342987122588675106e+02
6.760000000000000000e+02 3.313880432275655608e+01
6.770000000000000000e+02 8.781243820369213893e+01
6.780000000000000000e+02 8.126913871810829448e+01
6.790000000000000000e+02 9.979324135656484884e+01
6.800000000000000000e+02 1.240421511926986398e+02
6.810000000000000000e+02 8.637243389752988776e+01
6.820000000000000000e+02 6.008107367765694207e+00
6.830000000000000000e+02 1.260171833229603777e+01
6.840000000000000000e+02 1.168525850694795665e+01
6.850000000000000000e+02 1.355284361211302979e+01
6.860000000000000000e+02 1.830957615225133139e+01
6.870000000000000000e+02 1.462103778220204475e+01
6.880000000000000000e+02 7.870582415888549122e+01
6.890000000000000000e+02 1.423401308027368941e+02
6.900000000000000000e+02 8.052397158058710147e+01
6.910000000000000000e+02 2.986679047283294963e+01
6.920000000000000000e+02 6.546882163036633528e+01
6.930000000000000000e+02 1.320943929060359778e+02
6.940000000000000000e+02 1.423738557652425527e+02
6.950000000000000000e+02 1.728268895664803324e+02
6.960000000000000000e+02 2.008229711263223294e+02
6.970000000000000000e+02 1.289517541269228786e+02
6.980000000000000000e+02 1.268824821821237663e+02
6.990000000000000000e+02 1.958760070732215581e+02
7.000000000000000000e+02 1.691544069058485036e+02
7.010000000000000000e+02 2.030047718108257584e+02
7.020000000000000000e+02 2.410101462144764923e+02
7.030000000000000000e+02 2.968447776856054361e+02
7.040000000000000000e+02 3.049198504667096472e+02
7.050000000000000000e+02 2.588307449906692455e+02
7.060000000000000000e+02 2.383968496577449798e+02
7.070000000000000000e+02 3.954155824932581709e+02
7.080000000000000000e+02 3.099331092511948782e+02
7.090000000000000000e+02 2.337671130263429120e+02
7.100000000000000000e+02 2.293353174237710732e+02
7.110000000000000000e+02 2.081202467330426487e+02
7.120000000000000000e+02 1.501102026135650362e+02
7.130000000000000000e+02 1.683161039410918818e+02
7.140000000000000000e+02 1.950347460485383237e+02
7.150000000000000000e+02 2.389977798382105050e+02
7.160000000000000000e+02 2.316634317776376122e+02
7.170000000000000000e+02 1.934519874948149152e+02
7.180000000000000000e+02 2.034308411947697550e+02
7.190000000000000000e+02 2.652061723086506504e+02
7.200000000000000000e+02 2.222018655329729597e+02
7.210000000000000000e+02 2.595397370877394678e+02
7.220000000000000000e+02 3.163215641568132810e+02
7.230000000000000000e+02 3.223269281418502032e+02
7.240000000000000000e+02 2.838285367143745930e+02
7.250000000000000000e+02 2.614093866002903610e+02
7.260000000000000000e+02 3.560730036499389257e+02
7.270000000000000000e+02 2.959116549263611091e+02
7.280000000000000000e+02 2.477321811449905624e+02
7.290000000000000000e+02 3.042806372874366048e+02
7.300000000000000000e+02 3.498723414229411333e+02
7.310000000000000000e+02 2.639861417963081749e+02
7.320000000000000000e+02 2.960856920970726947e+02
7.330000000000000000e+02 3.542049883634122693e+02
7.340000000000000000e+02 4.111195674823737249e+02
7.350000000000000000e+02 3.799451951462385750e+02
7.360000000000000000e+02 2.692738384774968949e+02
7.370000000000000000e+02 2.081087084612184981e+02
7.380000000000000000e+02 2.114525209707528290e+02
7.390000000000000000e+02 2.447136415266540155e+02
7.400000000000000000e+02 2.351396396515965250e+02
7.410000000000000000e+02 1.930592264675370018e+02
7.420000000000000000e+02 1.815828721841944002e+02
7.430000000000000000e+02 2.227197006636262131e+02
7.440000000000000000e+02 2.199768942335602446e+02
7.450000000000000000e+02 1.774769280024885063e+02
7.460000000000000000e+02 1.636931338311548814e+02
7.470000000000000000e+02 1.221736358182930786e+02
7.480000000000000000e+02 8.856151756896943539e+01
7.490000000000000000e+02 1.046367832607338926e+02
7.500000000000000000e+02 1.053369367143741897e+02
7.510000000000000000e+02 7.454281899191046534e+01
7.520000000000000000e+02 1.471179225264456534e+02
7.530000000000000000e+02 1.453481343912060311e+02
7.540000000000000000e+02 6.919947485791442432e+01
7.550000000000000000e+02 7.859763385811625369e+00
7.560000000000000000e+02 2.453594103920374181e+01
7.570000000000000000e+02 7.511218537647809512e+01
7.580000000000000000e+02 4.745724103713097719e+01
7.590000000000000000e+02 5.896226929890012514e+01
7.600000000000000000e+02 4.428132055578614512e+01
7.610000000000000000e+02 2.587699504044711674e+01
7.620000000000000000e+02 2.452315235054911824e+01
7.630000000000000000e+02 5.370741574035731958e+01
7.640000000000000000e+02 8.109024355527920136e+01
7.650000000000000000e+02 1.075523551711264787e+02
7.660000000000000000e+02 1.086756688303605927e+02
7.670000000000000000e+02 9.776181394316527928e+01
7.680000000000000000e+02 8.476001453847744926e+01
7.690000000000000000e+02 4.751960276233873515e+01
7.700000000000000000e+02 1.247103652769127535e+01
7.710000000000000000e+02 2.074256900643023016e+01
7.720000000000000000e+02 4.306803690313240907e+01
7.730000000000000000e+02 5.773609979879695686e+01
7.740000000000000000e+02 7.309540325451118292e+01
7.750000000000000000e+02 7.741836731176016428e+01
7.760000000000000000e+02 8.201910716448868044e+00
7.770000000000000000e+02 6.651968664177448431e+01
7.780000000000000000e+02 1.558644242065964818e+02
7.790000000000000000e+02 1.456586496577476453e+02
7.800000000000000000e+02 9.484460085044648281e+01
7.810000000000000000e+02 1.095675080750882415e+02
7.820000000000000000e+02 1.718679761875127951e+02
7.830000000000000000e+02 6.952202604853914636e+01
7.840000000000000000e+02 1.402364887492218486e+02
7.850000000000000000e+02 1.207900172370880654e+02
7.860000000000000000e+02 4.528857610949917500e+01
7.870000000000000000e+02 5.051904677245311603e+01
7.880000000000000000e+02 1.453341031113884014e+02
7.890000000000000000e+02 1.694161781003732017e+02
7.900000000000000000e+02 1.649840416303672725e+02
7.910000000000000000e+02 1.462150842978637968e+02
7.920000000000000000e+02 1.684403419742836832e+02
7.930000000000000000e+02 1.421718643434985552e+02
7.940000000000000000e+02 1.138978988591563706e+02
7.950000000000000000e+02 1.995199885524671402e+02
7.960000000000000000e+02 1.776563607342879436e+02
7.970000000000000000e+02 2.178299862476648343e+02
7.980000000000000000e+02 2.770696746733036662e+02
7.990000000000000000e+02 3.545833726612729038e+02
8.000000000000000000e+02 3.684769491599263915e+02
8.010000000000000000e+02 3.310742421281902352e+02
8.020000000000000000e+02 3.911231438083378862e+02
8.030000000000000000e+02 3.074370216345152471e+02
8.040000000000000000e+02 3.782426241028812228e+02
8.050000000000000000e+02 3.580661995851453412e+02
8.060000000000000000e+02 3.564152071561943558e+02
8.070000000000000000e+02 4.429418877411305289e+02
8.080000000000000000e+02 5.268502847541972187e+02
8.090000000000000000e+02 6.048148422318997746e+02
8.100000000000000000e+02 5.777831425430422314e+02
8.110000000000000000e+02 5.348411568761683839e+02
8.120000000000000000e+02 4.370979649315673328e+02
8.130000000000000000e+02 3.974033664177549099e+02
8.140000000000000000e+02 3.972062347645734803e+02
8.150000000000000000e+02 3.064756612194113927e+02
8.160000000000000000e+02 2.837379058494085484e+02
8.170000000000000000e+02 2.097058830533081277e+02
8.180000000000000000e+02 1.766194666321027000e+02
8.190000000000000000e+02 1.514553777017205789e+02
8.200000000000000000e+02 1.154121316116980722e+02
8.210000000000000000e+02 8.924616148101991087e+01
8.220000000000000000e+02 6.152048133374750449e+01
8.230000000000000000e+02 2.976801853587587487e+01
8.240000000000000000e+02 6.662436742999225281e+00
8.250000000000000000e+02 6.308889555279252903e+01
8.260000000000000000e+02 6.699597038166663765e+01
8.270000000000000000e+02 1.859635555279012920e+01
8.280000000000000000e+02 1.602358808338545870e+01
8.290000000000000000e+02 1.360191164779152828e+01
8.300000000000000000e+02 2.258857598630907759e+01
8.310000000000000000e+02 4.536637475627416904e+01
8.320000000000000000e+02 7.047719198091675707e+01
8.330000000000000000e+02 7.094689025513386582e+01
8.340000000000000000e+02 6.204422129018874443e+01
8.350000000000000000e+02 6.689971091889664478e+01
8.360000000000000000e+02 6.281822624144309941e+01
8.370000000000000000e+02 3.242927807094039139e+01
8.380000000000000000e+02 3.922708459863029873e+01
8.390000000000000000e+02 2.330495579547719487e+01
8.400000000000000000e+02 4.944847166321270748e+01
8.410000000000000000e+02 9.024214309271610546e+01
8.420000000000000000e+02 1.654903461729904990e+01
8.430000000000000000e+02 3.613388709041920777e+01
8.440000000000000000e+02 2.316451386019574343e+01
8.450000000000000000e+02 4.404448786143934313e+00
8.460000000000000000e+02 6.078585635835996470e+01
8.470000000000000000e+02 1.032939185438705607e+02
8.480000000000000000e+02 1.368766069487650157e+02
8.490000000000000000e+02 2.042601500000004080e+02
8.500000000000000000e+02 2.181334420037338475e+02
8.510000000000000000e+02 2.462302235220911655e+02
8.520000000000000000e+02 2.489151583696343550e+02
8.530000000000000000e+02 3.336034711678100848e+02
8.540000000000000000e+02 4.583606863721231548e+02
8.550000000000000000e+02 5.711717133789696845e+02
8.560000000000000000e+02 6.739131846919741520e+02
8.570000000000000000e+02 7.828449873885093666e+02
8.580000000000000000e+02 9.493050606305798738e+02
8.590000000000000000e+02 1.273116679734499030e+03
8.600000000000000000e+02 1.437637291225886884e+03
8.610000000000000000e+02 1.615508761667699673e+03
8.620000000000000000e+02 1.898110364239786577e+03
8.630000000000000000e+02 2.246988155569383252e+03
8.640000000000000000e+02 2.745984006637629591e+03
8.650000000000000000e+02 2.989233328562540464e+03
8.660000000000000000e+02 3.446812186022395508e+03
8.670000000000000000e+02 3.886144219871398946e+03
8.680000000000000000e+02 4.013312890686579522e+03
8.690000000000000000e+02 4.000029014931563324e+03
8.700000000000000000e+02 3.970143044803980956e+03
8.710000000000000000e+02 3.596532397427921296e+03
8.720000000000000000e+02 3.160880477810037519e+03
8.730000000000000000e+02 2.797165027587636814e+03
8.740000000000000000e+02 2.360109309271938855e+03
8.750000000000000000e+02 2.006408822065532604e+03
8.760000000000000000e+02 1.737348413607136081e+03
8.770000000000000000e+02 1.493347634723089186e+03
8.780000000000000000e+02 1.333138052882620741e+03
8.790000000000000000e+02 1.212794085874299981e+03
8.800000000000000000e+02 1.100303278365484630e+03
8.810000000000000000e+02 9.300984355735324698e+02
8.820000000000000000e+02 7.637942783240005156e+02
8.830000000000000000e+02 6.497608169881751792e+02
8.840000000000000000e+02 5.795789887367768642e+02
8.850000000000000000e+02 5.392884801908320469e+02
8.860000000000000000e+02 5.499291644264664001e+02
8.870000000000000000e+02 6.189423662518145193e+02
8.880000000000000000e+02 5.358771624766667401e+02
8.890000000000000000e+02 5.426018401576411634e+02
8.900000000000000000e+02 5.626122350757107142e+02
8.910000000000000000e+02 5.485112896909354276e+02
8.920000000000000000e+02 5.789283811281618455e+02
8.930000000000000000e+02 6.039850997510887964e+02
8.940000000000000000e+02 6.251344744658786112e+02
8.950000000000000000e+02 5.951103263376196537e+02
8.960000000000000000e+02 6.206794763119695517e+02
8.970000000000000000e+02 7.238908739265731356e+02
8.980000000000000000e+02 7.808342246421909749e+02
8.990000000000000000e+02 7.497286289773907129e+02
9.000000000000000000e+02 7.903521433727476051e+02
9.010000000000000000e+02 9.121113114499046333e+02
9.020000000000000000e+02 9.652245448662092713e+02
9.030000000000000000e+02 1.018068330740508031e+03
9.040000000000000000e+02 9.904509220286264508e+02
9.050000000000000000e+02 1.016034269653596084e+03
9.060000000000000000e+02 1.176519224388214298e+03
9.070000000000000000e+02 1.336939937772245685e+03
9.080000000000000000e+02 1.402131181082761259e+03
9.090000000000000000e+02 1.549355787639982054e+03
9.100000000000000000e+02 1.727737836963287464e+03
9.110000000000000000e+02 1.957617033602989068e+03
9.120000000000000000e+02 2.265711200746565282e+03
9.130000000000000000e+02 2.647341509023036906e+03
9.140000000000000000e+02 3.071292779921190686e+03
9.150000000000000000e+02 3.536561811696373297e+03
9.160000000000000000e+02 4.135171848786532792e+03
9.170000000000000000e+02 5.042272035054920707e+03
9.180000000000000000e+02 5.973093391123983565e+03
9.190000000000000000e+02 7.041623614187878047e+03
9.200000000000000000e+02 8.311947433105106029e+03
9.210000000000000000e+02 9.830545500933383664e+03
9.220000000000000000e+02 1.164811667288940407e+04
9.230000000000000000e+02 1.359635259074876376e+04
9.240000000000000000e+02 1.569103730968679338e+04
9.250000000000000000e+02 1.755134384567517554e+04
9.260000000000000000e+02 1.888167766023646618e+04
9.270000000000000000e+02 1.937706207425845423e+04
9.280000000000000000e+02 1.886451825140010260e+04
9.290000000000000000e+02 1.743988657125073951e+04
9.300000000000000000e+02 1.537295117610444322e+04
9.310000000000000000e+02 1.311629179838197888e+04
9.320000000000000000e+02 1.108961378137307474e+04
9.330000000000000000e+02 9.310156015971864690e+03
9.340000000000000000e+02 7.793099986932234970e+03
9.350000000000000000e+02 6.565263798838606817e+03
9.360000000000000000e+02 5.544961506326512790e+03
9.370000000000000000e+02 4.720046340593251443e+03
9.380000000000000000e+02 4.186617085026971836e+03
9.390000000000000000e+02 3.486770719975111206e+03
9.400000000000000000e+02 3.294334257208049166e+03
9.410000000000000000e+02 2.760995726669425039e+03
9.420000000000000000e+02 2.365239952499478022e+03
9.430000000000000000e+02 2.124213507156187006e+03
9.440000000000000000e+02 1.805607365823297641e+03
9.450000000000000000e+02 1.508871171126311992e+03
9.460000000000000000e+02 1.332222356979873666e+03
9.470000000000000000e+02 1.173576702758759438e+03
9.480000000000000000e+02 1.117172667703793877e+03
9.490000000000000000e+02 1.054434357602154705e+03
9.500000000000000000e+02 9.556980528935939674e+02
9.510000000000000000e+02 8.563529941505937586e+02
9.520000000000000000e+02 7.652232039203455543e+02
9.530000000000000000e+02 6.444522086496591555e+02
9.540000000000000000e+02 5.174073149346612581e+02
9.550000000000000000e+02 5.707080165733241301e+02
9.560000000000000000e+02 5.666093470856666272e+02
9.570000000000000000e+02 6.299395217797148234e+02
9.580000000000000000e+02 5.734319352623922441e+02
9.590000000000000000e+02 4.871800297033797165e+02
9.600000000000000000e+02 4.904858052063883065e+02
9.610000000000000000e+02 4.808876282040652654e+02
9.620000000000000000e+02 4.967238884256365168e+02
9.630000000000000000e+02 4.306668862684070405e+02
9.640000000000000000e+02 3.302954788469503455e+02
9.650000000000000000e+02 3.470935222360520811e+02
9.660000000000000000e+02 2.700727365276881073e+02
9.670000000000000000e+02 1.907094203235180601e+02
9.680000000000000000e+02 2.278476895664797723e+02
9.690000000000000000e+02 2.108070645716650802e+02
9.700000000000000000e+02 1.664326048527582316e+02
9.710000000000000000e+02 2.550297106409462060e+02
9.720000000000000000e+02 9.569870941713259072e+01
9.730000000000000000e+02 3.237170868906880372e+01
9.740000000000000000e+02 2.341849614187880135e+01
9.750000000000000000e+02 1.343269082140660942e+01
9.760000000000000000e+02 2.218577320970631206e+01
9.770000000000000000e+02 1.393747742335598971e+01
9.780000000000000000e+02 5.298865453018051141e+01
9.790000000000000000e+02 5.220229443476420528e+01
9.800000000000000000e+02 2.394877894835072141e+01
9.810000000000000000e+02 1.191044275668941488e+01
9.820000000000000000e+02 1.843248848993965083e+01
9.830000000000000000e+02 8.830340505911667748e+00
9.840000000000000000e+02 4.251385117610408315e+01
9.850000000000000000e+02 1.255243571873055117e+02
9.860000000000000000e+02 1.416620405310227682e+01
9.870000000000000000e+02 3.964920093341624607e+01
9.880000000000000000e+02 2.788444601120128041e+01
9.890000000000000000e+02 4.218238158025605600e+01
9.900000000000000000e+02 2.330455779921184600e+01
9.910000000000000000e+02 4.654164652354292286e+01
9.920000000000000000e+02 2.294874076130394869e+01
9.930000000000000000e+02 1.362257503422553029e+01
9.940000000000000000e+02 4.612506642190870032e+00
9.950000000000000000e+02 3.608508379925302734e+01
9.960000000000000000e+02 2.550908685334843184e+01
9.970000000000000000e+02 2.338744179838112913e+01
9.980000000000000000e+02 3.067830062422207504e+01
9.990000000000000000e+02 9.184143294752011855e+01
1.000000000000000000e+03 4.542743934453629606e+01
1.001000000000000000e+03 4.594145360995762672e+01
1.002000000000000000e+03 1.659073942029000293e+01
1.003000000000000000e+03 8.121523908713639628e+01
1.004000000000000000e+03 5.996746340248817120e+01
1.005000000000000000e+03 1.021312963693006282e+01
1.006000000000000000e+03 5.296307560166265205e+01
1.007000000000000000e+03 6.061413709543534623e+01
1.008000000000000000e+03 3.545151211618252773e+01
1.009000000000000000e+03 3.452167543568444330e+01
1.010000000000000000e+03 8.487912871369642787e+00
1.011000000000000000e+03 4.021270755693632282e+01
1.012000000000000000e+03 1.266447908713695725e+01
1.013000000000000000e+03 9.548492296680887392e+00
1.014000000000000000e+03 4.927192892116121214e+00
1.015000000000000000e+03 6.843750248962395233e+01
1.016000000000000000e+03 1.312364705394196562e+02
1.017000000000000000e+03 9.098944132780391669e+01
1.018000000000000000e+03 1.240088053942029411e+01
1.019000000000000000e+03 6.270693664596227990e+01
1.020000000000000000e+03 1.045732130705394098e+02
1.021000000000000000e+03 5.206102877593248479e+01
1.022000000000000000e+03 5.426463358921154168e+01
1.023000000000000000e+03 1.862785126707747807e+01
1.024000000000000000e+03 1.047732187551856669e+02
1.025000000000000000e+03 1.290842987551851593e+02
1.026000000000000000e+03 9.876293269709390188e+01
1.027000000000000000e+03 1.287479495850600131e+02
1.028000000000000000e+03 1.994357688796702064e+02
1.029000000000000000e+03 2.612533120331958685e+02
1.030000000000000000e+03 2.522915531120328581e+02
1.031000000000000000e+03 2.816160846790886012e+02
1.032000000000000000e+03 3.095070634854785681e+02
1.033000000000000000e+03 3.630005950207485057e+02
1.034000000000000000e+03 4.273666360995833315e+02
1.035000000000000000e+03 4.567909605809131222e+02
1.036000000000000000e+03 4.829003242738636459e+02
1.037000000000000000e+03 5.787398035269619641e+02
1.038000000000000000e+03 7.675128842323646268e+02
1.039000000000000000e+03 7.450367939833981836e+02
1.040000000000000000e+03 6.622401033195089894e+02
1.041000000000000000e+03 6.446116717842327262e+02
1.042000000000000000e+03 5.929312834024856329e+02
1.043000000000000000e+03 4.632863020746820553e+02
1.044000000000000000e+03 3.528510161825747673e+02
1.045000000000000000e+03 3.510566709543580259e+02
1.046000000000000000e+03 4.106057489626517167e+02
1.047000000000000000e+03 2.754692000000056282e+02
1.048000000000000000e+03 3.648374300207009355e+02
1.049000000000000000e+03 3.950084842323636281e+02
1.050000000000000000e+03 4.044556261410767775e+02
1.051000000000000000e+03 3.868499406639037943e+02
1.052000000000000000e+03 3.466174946169765576e+02
1.053000000000000000e+03 3.493662531120344852e+02
1.054000000000000000e+03 4.039881213692860342e+02
1.055000000000000000e+03 5.097860259336080162e+02
1.056000000000000000e+03 5.978326535269725355e+02
1.057000000000000000e+03 5.827926576763471758e+02
1.058000000000000000e+03 6.484913377593311452e+02
1.059000000000000000e+03 7.804188771784259870e+02
1.060000000000000000e+03 9.319214322981339365e+02
1.061000000000000000e+03 1.040500056016594499e+03
1.062000000000000000e+03 1.106649863070538913e+03
1.063000000000000000e+03 1.148908607883814057e+03
1.064000000000000000e+03 1.032183107883822458e+03
1.065000000000000000e+03 1.082641419087135091e+03
1.066000000000000000e+03 1.053891572614105598e+03
1.067000000000000000e+03 9.130649074688632254e+02
1.068000000000000000e+03 7.794200705394272291e+02
1.069000000000000000e+03 6.720169724066379331e+02
1.070000000000000000e+03 5.663152051867136834e+02
1.071000000000000000e+03 4.967963863070494313e+02
1.072000000000000000e+03 4.868263524896307217e+02
1.073000000000000000e+03 3.485663294605754459e+02
1.074000000000000000e+03 2.823777136929461449e+02
1.075000000000000000e+03 3.115471020746867339e+02
1.076000000000000000e+03 2.914004352697094760e+02
1.077000000000000000e+03 2.379225962732814992e+02
1.078000000000000000e+03 3.735321502074594946e+02
1.079000000000000000e+03 2.329692147302979208e+02
1.080000000000000000e+03 2.336984066390007513e+02
1.081000000000000000e+03 2.814452677018331883e+02
1.082000000000000000e+03 2.285814734439837252e+02
1.083000000000000000e+03 2.577692742738568086e+02
1.084000000000000000e+03 2.039563153527089412e+02
1.085000000000000000e+03 2.542793602484586017e+02
1.086000000000000000e+03 1.907290626141094094e+02
1.087000000000000000e+03 1.630516736514634886e+02
1.088000000000000000e+03 1.767173931535260749e+02
1.089000000000000000e+03 8.713691594204293267e+01
1.090000000000000000e+03 1.663555103734443037e+02
1.091000000000000000e+03 1.268918780083248663e+02
1.092000000000000000e+03 6.094143186726871164e+00
1.093000000000000000e+03 6.562022556017552688e+00
1.094000000000000000e+03 1.929780334647448115e+02
1.095000000000000000e+03 1.362607350207571812e+02
1.096000000000000000e+03 7.889767215767604114e+01
1.097000000000000000e+03 1.041943882780094555e+02
1.098000000000000000e+03 1.235357182572605836e+02
1.099000000000000000e+03 8.900126153527327233e+01
1.100000000000000000e+03 4.496437443983399618e+01
1.101000000000000000e+03 5.588010053942180377e+01
1.102000000000000000e+03 9.407199614108195362e+01
1.103000000000000000e+03 2.841428483402381033e+01
1.104000000000000000e+03 8.392632321577431753e+01
1.105000000000000000e+03 1.336936568464718960e+02
1.106000000000000000e+03 1.054420391304364699e+02
1.107000000000000000e+03 7.498710149377544099e+01
1.108000000000000000e+03 7.807289829875868747e+01
1.109000000000000000e+03 1.161387804979240457e+02
1.110000000000000000e+03 1.296036714285711184e+02
1.111000000000000000e+03 1.505048558091313851e+02
1.112000000000000000e+03 1.853727477178401841e+02
1.113000000000000000e+03 8.829295975104211891e+01
1.114000000000000000e+03 6.422915043478302266e+01
1.115000000000000000e+03 9.631332896265924148e+01
1.116000000000000000e+03 1.385309091286273144e+02
1.117000000000000000e+03 1.626803954356845168e+02
1.118000000000000000e+03 1.485961583850912575e+02
1.119000000000000000e+03 1.013761749377629684e+02
1.120000000000000000e+03 4.866148066390186955e+01
1.121000000000000000e+03 3.574820116182526419e+01
1.122000000000000000e+03 1.093190840579674195e+01
1.123000000000000000e+03 5.366652655601136246e+00
1.124000000000000000e+03 2.607499199170130399e+00
1.125000000000000000e+03 5.613537311203766933e+01
1.126000000000000000e+03 9.121217406638965031e+01
1.127000000000000000e+03 6.515667180498009259e+01
1.128000000000000000e+03 6.961159429460870740e+01
1.129000000000000000e+03 4.615494355806909965e+01
1.130000000000000000e+03 1.548249518672108991e+02
1.131000000000000000e+03 6.401484929460002604e+01
1.132000000000000000e+03 6.851826481327375973e+01
1.133000000000000000e+03 1.271263066389898029e+02
1.134000000000000000e+03 9.348675717841763344e+01
1.135000000000000000e+03 1.491304417012393060e+02
1.136000000000000000e+03 9.193248966806467593e+01
1.137000000000000000e+03 1.780305165975169928e+02
1.138000000000000000e+03 1.425926351659727516e+02
1.139000000000000000e+03 9.459797333334977054e+01
1.140000000000000000e+03 1.310388481327715340e+02
1.141000000000000000e+03 9.231054189212161987e+01
1.142000000000000000e+03 1.572442788381752337e+02
1.143000000000000000e+03 1.141142584264943736e+02
1.144000000000000000e+03 3.280823493776124167e+01
1.145000000000000000e+03 4.951344558091157921e+01
1.146000000000000000e+03 1.107350593360955884e+02
1.147000000000000000e+03 8.344297658384965644e+01
1.148000000000000000e+03 8.641894999999999527e+01
1.149000000000000000e+03 7.971219136928986870e+01
1.150000000000000000e+03 1.297201004149319203e+02
1.151000000000000000e+03 1.042167773291880053e+02
1.152000000000000000e+03 9.813329865146990016e+00
1.153000000000000000e+03 1.107378550622391060e+02
1.154000000000000000e+03 1.376401964730271459e+02
1.155000000000000000e+03 7.904782736514364672e+01
1.156000000000000000e+03 5.610709197923281977e+01
1.157000000000000000e+03 6.200963817429591529e+01
1.158000000000000000e+03 3.405321575933315614e+01
1.159000000000000000e+03 9.095470439834558363e+01
1.160000000000000000e+03 6.544506163900184958e+01
1.161000000000000000e+03 7.228457688796787295e+01
1.162000000000000000e+03 4.434921190871523144e+00
1.163000000000000000e+03 3.702738931534991451e+01
1.164000000000000000e+03 1.781290099585004327e+01
1.165000000000000000e+03 1.024158848132744026e+01
1.166000000000000000e+03 2.629732178423465427e+01
1.167000000000000000e+03 3.636591481327765507e+01
1.168000000000000000e+03 8.619844447205247562e+00
1.169000000000000000e+03 1.655349319502071381e+01
1.170000000000000000e+03 1.948058429460657592e+01
1.171000000000000000e+03 3.335387520746760970e+01
1.172000000000000000e+03 7.049280105590021606e+01
1.173000000000000000e+03 1.431354925311233046e+02
1.174000000000000000e+03 1.009529024896306737e+02
1.175000000000000000e+03 1.210160763485453401e+02
1.176000000000000000e+03 1.754447956431530997e+02
1.177000000000000000e+03 1.275102489626515165e+02
1.178000000000000000e+03 1.234751051867204836e+02
1.179000000000000000e+03 6.004185304979390025e+01
1.180000000000000000e+03 1.070448822153032964e+01
1.181000000000000000e+03 3.033039336099234262e+01
1.182000000000000000e+03 9.590833008298363893e+01
1.183000000000000000e+03 1.757974377593361908e+02
1.184000000000000000e+03 1.334265236514499406e+02
1.185000000000000000e+03 1.450965765560158331e+02
1.186000000000000000e+03 1.364556964730289792e+02
1.187000000000000000e+03 1.576696665975126734e+02
1.188000000000000000e+03 2.271854072614029576e+02
1.189000000000000000e+03 2.724621543568459288e+02
1.190000000000000000e+03 3.202994601659768250e+02
1.191000000000000000e+03 2.797963041493687228e+02
1.192000000000000000e+03 1.806110323651454905e+02
1.193000000000000000e+03 2.183616062240686233e+02
1.194000000000000000e+03 2.993699313278016234e+02
1.195000000000000000e+03 2.812591082987577806e+02
1.196000000000000000e+03 2.700321711618251470e+02
1.197000000000000000e+03 3.454137049689476271e+02
1.198000000000000000e+03 3.751789995850617174e+02
1.199000000000000000e+03 4.032259692946043970e+02
1.200000000000000000e+03 3.692885248962647324e+02
1.201000000000000000e+03 3.877070062111866946e+02
1.202000000000000000e+03 4.388512267634841919e+02
1.203000000000000000e+03 4.427538910788383646e+02
1.204000000000000000e+03 4.366009489626569007e+02
1.205000000000000000e+03 4.460225174273895732e+02
1.206000000000000000e+03 4.241972713692939578e+02
1.207000000000000000e+03 4.457500975103733936e+02
1.208000000000000000e+03 4.061310618257177794e+02
1.209000000000000000e+03 2.586384101449339141e+02
1.210000000000000000e+03 3.058270174273863518e+02
1.211000000000000000e+03 3.113050782157645813e+02
1.212000000000000000e+03 3.086986400414928085e+02
1.213000000000000000e+03 3.253254887966797355e+02
1.214000000000000000e+03 2.900634257261381777e+02
1.215000000000000000e+03 2.484609112033180907e+02
1.216000000000000000e+03 2.644309099585061062e+02
1.217000000000000000e+03 2.545117207039338041e+02
1.218000000000000000e+03 2.083112844398324626e+02
1.219000000000000000e+03 1.965026560165979106e+02
1.220000000000000000e+03 1.918639973029047496e+02
1.221000000000000000e+03 1.775997570539412607e+02
1.222000000000000000e+03 1.535892058091284866e+02
1.223000000000000000e+03 1.290161580912867407e+02
1.224000000000000000e+03 2.403662755186742288e+02
1.225000000000000000e+03 2.463786116182479304e+02
1.226000000000000000e+03 1.603596556935825959e+02
1.227000000000000000e+03 1.278710051867224990e+02
1.228000000000000000e+03 1.065334908713697928e+02
1.229000000000000000e+03 1.375778051867185638e+02
1.230000000000000000e+03 1.183436253112014498e+02
1.231000000000000000e+03 1.621790360995848630e+02
1.232000000000000000e+03 1.283407692945993404e+02
1.233000000000000000e+03 5.012261082988041494e+01
1.234000000000000000e+03 1.682217238095237732e+01
1.235000000000000000e+03 4.539631392116444886e+01
1.236000000000000000e+03 5.641472800829870948e+01
1.237000000000000000e+03 8.922021512447854263e+01
1.238000000000000000e+03 1.460367708074552127e+02
1.239000000000000000e+03 1.489325721991665716e+02
1.240000000000000000e+03 9.107324585062687561e+01
1.241000000000000000e+03 6.827535995850608685e+01
1.242000000000000000e+03 1.500132232365183995e+02
1.243000000000000000e+03 1.333919321576802588e+02
1.244000000000000000e+03 8.455355771784404340e+01
1.245000000000000000e+03 3.372394686722054757e+01
1.246000000000000000e+03 8.765683211618414816e+01
1.247000000000000000e+03 8.026282879668309533e+01
1.248000000000000000e+03 1.431656859336046494e+01
1.249000000000000000e+03 1.010880742738719960e+02
1.250000000000000000e+03 1.346291240664013742e+02
1.251000000000000000e+03 6.698317224066396136e+01
1.252000000000000000e+03 5.333722724066242904e+01
1.253000000000000000e+03 5.169316533194741226e+01
1.254000000000000000e+03 1.163574714730254129e+02
1.255000000000000000e+03 1.396509496894407505e+02
1.256000000000000000e+03 5.728035232365474627e+01
1.257000000000000000e+03 1.166318344398297882e+02
1.258000000000000000e+03 1.397989170124495502e+02
1.259000000000000000e+03 1.865231037267092162e+01
1.260000000000000000e+03 2.358606613069513713e+01
1.261000000000000000e+03 1.337728105809087253e+02
1.262000000000000000e+03 1.288467103734424484e+02
1.263000000000000000e+03 7.834389207039333769e+01
1.264000000000000000e+03 5.546750273859220215e+01
1.265000000000000000e+03 2.196223174273868750e+01
1.266000000000000000e+03 2.284295282157737716e+01
1.267000000000000000e+03 4.894653652173722946e+01
1.268000000000000000e+03 8.907422497925271898e+01
1.269000000000000000e+03 4.542207109958333433e+01
1.270000000000000000e+03 6.329539116183792835e+00
1.271000000000000000e+03 7.818219569359396104e+00
1.272000000000000000e+03 1.483893116182610328e+01
1.273000000000000000e+03 6.568246294606248625e+01
1.274000000000000000e+03 1.439670589211557115e+02
1.275000000000000000e+03 1.313437734439863220e+02
1.276000000000000000e+03 8.631852829875475663e+01
1.277000000000000000e+03 3.262355139004365867e+01
1.278000000000000000e+03 2.731344259335815394e+01
1.279000000000000000e+03 1.096158623443984084e+02
1.280000000000000000e+03 1.032391174688750368e+02
1.281000000000000000e+03 2.656138261411175705e+01
1.282000000000000000e+03 5.406225228215677703e+01
1.283000000000000000e+03 9.478066539419228320e+01
1.284000000000000000e+03 1.265236029045630488e+02
1.285000000000000000e+03 1.231003132780102050e+02
1.286000000000000000e+03 7.593112539419031748e+01
1.287000000000000000e+03 6.044278105809298296e+01
1.288000000000000000e+03 1.234926645962664509e+02
1.289000000000000000e+03 1.009938074688803340e+02
1.290000000000000000e+03 1.716534097510110257e+01
1.291000000000000000e+03 1.576055120331942483e+01
1.292000000000000000e+03 7.366547590061870210e+01
1.293000000000000000e+03 1.122268124481331597e+02
1.294000000000000000e+03 9.872982668049587573e+01
1.295000000000000000e+03 6.012227798755561992e+01
1.296000000000000000e+03 2.635728066252587709e+01
1.297000000000000000e+03 5.240425464730765981e+01
1.298000000000000000e+03 1.131973900414971581e+02
1.299000000000000000e+03 2.995020746888260987e+01
1.300000000000000000e+03 0.000000000000000000e+00
1.301000000000000000e+03 0.000000000000000000e+00
1.302000000000000000e+03 0.000000000000000000e+00
1.303000000000000000e+03 0.000000000000000000e+00
1.304000000000000000e+03 0.000000000000000000e+00
1.305000000000000000e+03 0.000000000000000000e+00
1.306000000000000000e+03 0.000000000000000000e+00
1.307000000000000000e+03 0.000000000000000000e+00
1.308000000000000000e+03 0.000000000000000000e+00
1.309000000000000000e+03 0.000000000000000000e+00
1.310000000000000000e+03 0.000000000000000000e+00
1.311000000000000000e+03 0.000000000000000000e+00
1.312000000000000000e+03 0.000000000000000000e+00
1.313000000000000000e+03 0.000000000000000000e+00
1.314000000000000000e+03 0.000000000000000000e+00
1.315000000000000000e+03 0.000000000000000000e+00
1.316000000000000000e+03 0.000000000000000000e+00
1.317000000000000000e+03 0.000000000000000000e+00
1.318000000000000000e+03 0.000000000000000000e+00
1.319000000000000000e+03 0.000000000000000000e+00
1.320000000000000000e+03 0.000000000000000000e+00
1.321000000000000000e+03 0.000000000000000000e+00
1.322000000000000000e+03 0.000000000000000000e+00
1.323000000000000000e+03 0.000000000000000000e+00
1.324000000000000000e+03 0.000000000000000000e+00
1.325000000000000000e+03 0.000000000000000000e+00
1.326000000000000000e+03 0.000000000000000000e+00
1.327000000000000000e+03 0.000000000000000000e+00
1.328000000000000000e+03 0.000000000000000000e+00
1.329000000000000000e+03 0.000000000000000000e+00
1.330000000000000000e+03 0.000000000000000000e+00
1.331000000000000000e+03 0.000000000000000000e+00
1.332000000000000000e+03 0.000000000000000000e+00
1.333000000000000000e+03 0.000000000000000000e+00
1.334000000000000000e+03 0.000000000000000000e+00
1.335000000000000000e+03 0.000000000000000000e+00
1.336000000000000000e+03 0.000000000000000000e+00
1.337000000000000000e+03 0.000000000000000000e+00
1.338000000000000000e+03 0.000000000000000000e+00
1.339000000000000000e+03 0.000000000000000000e+00
1.340000000000000000e+03 0.000000000000000000e+00
1.341000000000000000e+03 0.000000000000000000e+00
1.342000000000000000e+03 0.000000000000000000e+00
1.343000000000000000e+03 0.000000000000000000e+00
1.344000000000000000e+03 0.000000000000000000e+00
1.345000000000000000e+03 0.000000000000000000e+00
1.346000000000000000e+03 0.000000000000000000e+00
1.347000000000000000e+03 0.000000000000000000e+00
1.348000000000000000e+03 0.000000000000000000e+00
1.349000000000000000e+03 0.000000000000000000e+00
1.350000000000000000e+03 0.000000000000000000e+00
1.351000000000000000e+03 0.000000000000000000e+00
1.352000000000000000e+03 0.000000000000000000e+00
1.353000000000000000e+03 0.000000000000000000e+00
1.354000000000000000e+03 0.000000000000000000e+00
1.355000000000000000e+03 0.000000000000000000e+00
1.356000000000000000e+03 0.000000000000000000e+00
1.357000000000000000e+03 0.000000000000000000e+00
1.358000000000000000e+03 0.000000000000000000e+00
1.359000000000000000e+03 0.000000000000000000e+00
1.360000000000000000e+03 0.000000000000000000e+00
1.361000000000000000e+03 0.000000000000000000e+00
1.362000000000000000e+03 0.000000000000000000e+00
1.363000000000000000e+03 0.000000000000000000e+00
1.364000000000000000e+03 0.000000000000000000e+00
1.365000000000000000e+03 0.000000000000000000e+00
1.366000000000000000e+03 0.000000000000000000e+00
1.367000000000000000e+03 0.000000000000000000e+00
1.368000000000000000e+03 0.000000000000000000e+00
1.369000000000000000e+03 0.000000000000000000e+00
1.370000000000000000e+03 0.000000000000000000e+00
1.371000000000000000e+03 0.000000000000000000e+00
1.372000000000000000e+03 0.000000000000000000e+00
1.373000000000000000e+03 0.000000000000000000e+00
1.374000000000000000e+03 0.000000000000000000e+00
1.375000000000000000e+03 0.000000000000000000e+00
1.376000000000000000e+03 0.000000000000000000e+00
1.377000000000000000e+03 0.000000000000000000e+00
1.378000000000000000e+03 0.000000000000000000e+00
1.379000000000000000e+03 0.000000000000000000e+00
1.380000000000000000e+03 0.000000000000000000e+00
1.381000000000000000e+03 0.000000000000000000e+00
1.382000000000000000e+03 0.000000000000000000e+00
1.383000000000000000e+03 0.000000000000000000e+00
1.384000000000000000e+03 0.000000000000000000e+00
1.385000000000000000e+03 0.000000000000000000e+00
1.386000000000000000e+03 0.000000000000000000e+00
1.387000000000000000e+03 0.000000000000000000e+00
1.388000000000000000e+03 0.000000000000000000e+00
1.389000000000000000e+03 0.000000000000000000e+00
1.390000000000000000e+03 0.000000000000000000e+00
1.391000000000000000e+03 0.000000000000000000e+00
1.392000000000000000e+03 0.000000000000000000e+00
1.393000000000000000e+03 0.000000000000000000e+00
1.394000000000000000e+03 0.000000000000000000e+00
1.395000000000000000e+03 0.000000000000000000e+00
1.396000000000000000e+03 0.000000000000000000e+00
1.397000000000000000e+03 0.000000000000000000e+00
1.398000000000000000e+03 0.000000000000000000e+00
1.399000000000000000e+03 0.000000000000000000e+00
1.400000000000000000e+03 0.000000000000000000e+00
1.401000000000000000e+03 0.000000000000000000e+00
1.402000000000000000e+03 0.000000000000000000e+00
1.403000000000000000e+03 0.000000000000000000e+00
1.404000000000000000e+03 0.000000000000000000e+00
1.405000000000000000e+03 0.000000000000000000e+00
1.406000000000000000e+03 0.000000000000000000e+00
1.407000000000000000e+03 0.000000000000000000e+00
1.408000000000000000e+03 0.000000000000000000e+00
1.409000000000000000e+03 0.000000000000000000e+00
1.410000000000000000e+03 0.000000000000000000e+00
1.411000000000000000e+03 0.000000000000000000e+00
1.412000000000000000e+03 0.000000000000000000e+00
1.413000000000000000e+03 0.000000000000000000e+00
1.414000000000000000e+03 0.000000000000000000e+00
1.415000000000000000e+03 0.000000000000000000e+00
1.416000000000000000e+03 0.000000000000000000e+00
1.417000000000000000e+03 0.000000000000000000e+00
1.418000000000000000e+03 0.000000000000000000e+00
1.419000000000000000e+03 0.000000000000000000e+00
1.420000000000000000e+03 0.000000000000000000e+00
1.421000000000000000e+03 0.000000000000000000e+00
1.422000000000000000e+03 0.000000000000000000e+00
1.423000000000000000e+03 0.000000000000000000e+00
1.424000000000000000e+03 0.000000000000000000e+00
1.425000000000000000e+03 0.000000000000000000e+00
1.426000000000000000e+03 0.000000000000000000e+00
1.427000000000000000e+03 0.000000000000000000e+00
1.428000000000000000e+03 0.000000000000000000e+00
1.429000000000000000e+03 0.000000000000000000e+00
1.430000000000000000e+03 0.000000000000000000e+00
1.431000000000000000e+03 0.000000000000000000e+00
1.432000000000000000e+03 0.000000000000000000e+00
1.433000000000000000e+03 0.000000000000000000e+00
1.434000000000000000e+03 0.000000000000000000e+00
1.435000000000000000e+03 0.000000000000000000e+00
1.436000000000000000e+03 0.000000000000000000e+00
1.437000000000000000e+03 0.000000000000000000e+00
1.438000000000000000e+03 0.000000000000000000e+00
1.439000000000000000e+03 0.000000000000000000e+00
1.440000000000000000e+03 0.000000000000000000e+00
1.441000000000000000e+03 0.000000000000000000e+00
1.442000000000000000e+03 0.000000000000000000e+00
1.443000000000000000e+03 0.000000000000000000e+00
1.444000000000000000e+03 0.000000000000000000e+00
1.445000000000000000e+03 0.000000000000000000e+00
1.446000000000000000e+03 0.000000000000000000e+00
1.447000000000000000e+03 0.000000000000000000e+00
1.448000000000000000e+03 0.000000000000000000e+00
1.449000000000000000e+03 0.000000000000000000e+00
1.450000000000000000e+03 0.000000000000000000e+00
1.451000000000000000e+03 0.000000000000000000e+00
1.452000000000000000e+03 0.000000000000000000e+00
1.453000000000000000e+03 0.000000000000000000e+00
1.454000000000000000e+03 0.000000000000000000e+00
1.455000000000000000e+03 0.000000000000000000e+00
1.456000000000000000e+03 0.000000000000000000e+00
1.457000000000000000e+03 0.000000000000000000e+00
1.458000000000000000e+03 0.000000000000000000e+00
1.459000000000000000e+03 0.000000000000000000e+00
1.460000000000000000e+03 0.000000000000000000e+00
1.461000000000000000e+03 0.000000000000000000e+00
1.462000000000000000e+03 0.000000000000000000e+00
1.463000000000000000e+03 0.000000000000000000e+00
1.464000000000000000e+03 0.000000000000000000e+00
1.465000000000000000e+03 0.000000000000000000e+00
1.466000000000000000e+03 0.000000000000000000e+00
1.467000000000000000e+03 0.000000000000000000e+00
1.468000000000000000e+03 0.000000000000000000e+00
1.469000000000000000e+03 0.000000000000000000e+00
1.470000000000000000e+03 0.000000000000000000e+00
1.471000000000000000e+03 0.000000000000000000e+00
1.472000000000000000e+03 0.000000000000000000e+00
1.473000000000000000e+03 0.000000000000000000e+00
1.474000000000000000e+03 0.000000000000000000e+00
1.475000000000000000e+03 0.000000000000000000e+00
1.476000000000000000e+03 0.000000000000000000e+00
1.477000000000000000e+03 0.000000000000000000e+00
1.478000000000000000e+03 0.000000000000000000e+00
1.479000000000000000e+03 0.000000000000000000e+00
1.480000000000000000e+03 0.000000000000000000e+00
1.481000000000000000e+03 0.000000000000000000e+00
1.482000000000000000e+03 0.000000000000000000e+00
1.483000000000000000e+03 0.000000000000000000e+00
1.484000000000000000e+03 0.000000000000000000e+00
1.485000000000000000e+03 0.000000000000000000e+00
1.486000000000000000e+03 0.000000000000000000e+00
1.487000000000000000e+03 0.000000000000000000e+00
1.488000000000000000e+03 0.000000000000000000e+00
1.489000000000000000e+03 0.000000000000000000e+00
1.490000000000000000e+03 0.000000000000000000e+00
1.491000000000000000e+03 0.000000000000000000e+00
1.492000000000000000e+03 0.000000000000000000e+00
1.493000000000000000e+03 0.000000000000000000e+00
1.494000000000000000e+03 0.000000000000000000e+00
1.495000000000000000e+03 0.000000000000000000e+00
1.496000000000000000e+03 0.000000000000000000e+00
1.497000000000000000e+03 0.000000000000000000e+00
1.498000000000000000e+03 0.000000000000000000e+00
1.499000000000000000e+03 0.000000000000000000e+00
1.500000000000000000e+03 0.000000000000000000e+00
