1.010000000000000000e+02 0.000000000000000000e+00
1.020000000000000000e+02 0.000000000000000000e+00
1.030000000000000000e+02 0.000000000000000000e+00
1.040000000000000000e+02 0.000000000000000000e+00
1.050000000000000000e+02 0.000000000000000000e+00
1.060000000000000000e+02 0.000000000000000000e+00
1.070000000000000000e+02 0.000000000000000000e+00
1.080000000000000000e+02 0.000000000000000000e+00
1.090000000000000000e+02 0.000000000000000000e+00
1.100000000000000000e+02 0.000000000000000000e+00
1.110000000000000000e+02 0.000000000000000000e+00
1.120000000000000000e+02 0.000000000000000000e+00
1.130000000000000000e+02 0.000000000000000000e+00
1.140000000000000000e+02 0.000000000000000000e+00
1.150000000000000000e+02 0.000000000000000000e+00
1.160000000000000000e+02 0.000000000000000000e+00
1.170000000000000000e+02 0.000000000000000000e+00
1.180000000000000000e+02 0.000000000000000000e+00
1.190000000000000000e+02 0.000000000000000000e+00
1.200000000000000000e+02 0.000000000000000000e+00
1.210000000000000000e+02 3.574780752955883045e+00
1.220000000000000000e+02 2.175542555693815938e+00
1.230000000000000000e+02 3.007312831985064250e+01
1.240000000000000000e+02 3.230984985895040040e+01
1.250000000000000000e+02 3.240547765401368707e+01
1.260000000000000000e+02 5.115933553297369230e+01
1.270000000000000000e+02 9.865396018460897665e+01
1.280000000000000000e+02 1.658722950840071064e+02
1.290000000000000000e+02 2.117146199917046090e+02
1.300000000000000000e+02 2.484472008711889544e+02
1.310000000000000000e+02 2.764759565028002157e+02
1.320000000000000000e+02 2.390593055797552893e+02
1.330000000000000000e+02 3.323562148931736715e+02
1.340000000000000000e+02 4.037607472308648653e+02
1.350000000000000000e+02 3.699520895042521715e+02
1.360000000000000000e+02 4.053029185646130372e+02
1.370000000000000000e+02 4.879590739473130725e+02
1.380000000000000000e+02 5.334843459975114683e+02
1.390000000000000000e+02 5.201740719352828819e+02
1.400000000000000000e+02 4.994916336444720741e+02
1.410000000000000000e+02 5.546714750103687948e+02
1.420000000000000000e+02 5.745085800663764530e+02
1.430000000000000000e+02 5.528241299937772055e+02
1.440000000000000000e+02 5.556628461219411292e+02
1.450000000000000000e+02 5.551454633063679012e+02
1.460000000000000000e+02 5.606476928023230357e+02
1.470000000000000000e+02 5.693035112194111207e+02
1.480000000000000000e+02 5.736952336652146869e+02
1.490000000000000000e+02 5.750683267371914553e+02
1.500000000000000000e+02 5.818447457373988527e+02
1.510000000000000000e+02 6.071086825140017709e+02
1.520000000000000000e+02 6.314023771624138135e+02
1.530000000000000000e+02 5.316097409788469577e+02
1.540000000000000000e+02 5.338347181290187109e+02
1.550000000000000000e+02 5.062685483924502137e+02
1.560000000000000000e+02 4.177014213604311408e+02
1.570000000000000000e+02 4.204647635345364165e+02
1.580000000000000000e+02 4.549633516075501802e+02
1.590000000000000000e+02 4.264635509332237575e+02
1.600000000000000000e+02 3.684859953744034442e+02
1.610000000000000000e+02 3.770931831985066083e+02
1.620000000000000000e+02 3.828350228121111627e+02
1.630000000000000000e+02 3.541150023024273423e+02
1.640000000000000000e+02 3.256378781165731766e+02
1.650000000000000000e+02 3.310108754615224029e+02
1.660000000000000000e+02 3.027470713752333609e+02
1.670000000000000000e+02 3.023550460692801494e+02
1.680000000000000000e+02 2.928080886538056689e+02
1.690000000000000000e+02 2.613852686994401324e+02
1.700000000000000000e+02 2.967420841941506069e+02
1.710000000000000000e+02 2.228002696950848360e+02
1.720000000000000000e+02 1.716614666251812196e+02
1.730000000000000000e+02 2.150945018046054145e+02
1.740000000000000000e+02 2.526862727027587994e+02
1.750000000000000000e+02 2.007799093341633068e+02
1.760000000000000000e+02 1.723609419622484893e+02
1.770000000000000000e+02 1.873845014104958580e+02
1.780000000000000000e+02 1.873690703381041089e+02
1.790000000000000000e+02 1.982253387805889702e+02
1.800000000000000000e+02 1.839541924082143396e+02
1.810000000000000000e+02 1.722748680564196491e+02
1.820000000000000000e+02 1.922453608587430267e+02
1.830000000000000000e+02 1.871343257208048101e+02
1.840000000000000000e+02 2.118587253889231761e+02
1.850000000000000000e+02 2.519997578510678409e+02
1.860000000000000000e+02 2.719972284795686051e+02
1.870000000000000000e+02 2.597014680564197988e+02
1.880000000000000000e+02 2.690248739265711606e+02
1.890000000000000000e+02 2.883465961418790471e+02
1.900000000000000000e+02 3.047428896079653668e+02
1.910000000000000000e+02 3.190031087326281636e+02
1.920000000000000000e+02 3.148008997096038115e+02
1.930000000000000000e+02 3.288740864343495218e+02
1.940000000000000000e+02 3.453295799253422729e+02
1.950000000000000000e+02 3.317962520638870387e+02
1.960000000000000000e+02 3.085139342460070679e+02
1.970000000000000000e+02 3.148897862712565825e+02
1.980000000000000000e+02 3.385310108898568728e+02
1.990000000000000000e+02 3.661119243103094050e+02
2.000000000000000000e+02 4.150599207840698455e+02
2.010000000000000000e+02 4.123109713130057798e+02
2.020000000000000000e+02 4.069483896079650549e+02
2.030000000000000000e+02 4.303640265505084130e+02
2.040000000000000000e+02 4.673842539514624832e+02
2.050000000000000000e+02 4.688722112424807733e+02
2.060000000000000000e+02 4.691826906677726470e+02
2.070000000000000000e+02 4.914972689483515751e+02
2.080000000000000000e+02 5.392059963907905740e+02
2.090000000000000000e+02 5.683330763998341126e+02
2.100000000000000000e+02 5.382835369010582554e+02
2.110000000000000000e+02 5.537639867454885234e+02
2.120000000000000000e+02 6.402407315221903445e+02
2.130000000000000000e+02 6.226968946484131493e+02
2.140000000000000000e+02 5.846319454262602449e+02
2.150000000000000000e+02 5.909126670192902111e+02
2.160000000000000000e+02 6.133125171126322357e+02
2.170000000000000000e+02 5.704204388508605916e+02
2.180000000000000000e+02 5.133251151420867018e+02
2.190000000000000000e+02 5.218666632441398860e+02
2.200000000000000000e+02 5.187321586807702261e+02
2.210000000000000000e+02 4.316999988801325685e+02
2.220000000000000000e+02 4.352691980294544578e+02
2.230000000000000000e+02 4.153982352831365006e+02
2.240000000000000000e+02 3.787680443591871153e+02
2.250000000000000000e+02 3.412630018046044711e+02
2.260000000000000000e+02 2.803904892760836560e+02
2.270000000000000000e+02 2.114353571132313618e+02
2.280000000000000000e+02 2.049412160962450571e+02
2.290000000000000000e+02 2.201830805227129986e+02
2.300000000000000000e+02 1.723710026130235349e+02
2.310000000000000000e+02 1.445481142294130734e+02
2.320000000000000000e+02 1.294037193113463502e+02
2.330000000000000000e+02 1.039098093218587877e+02
2.340000000000000000e+02 7.079152943372754692e+01
2.350000000000000000e+02 9.631234840282098730e+01
2.360000000000000000e+02 7.498031284944028130e+01
2.370000000000000000e+02 6.996336558597785427e+01
2.380000000000000000e+02 8.179753396390766795e+01
2.390000000000000000e+02 4.181674259435914109e+01
2.400000000000000000e+02 2.049219120307000708e+01
2.410000000000000000e+02 2.219330952769061227e+01
2.420000000000000000e+02 2.545319054749020538e+01
2.430000000000000000e+02 4.052601619788438825e+01
2.440000000000000000e+02 2.594324463596770869e+01
2.450000000000000000e+02 1.167889648278731585e+01
2.460000000000000000e+02 9.196168122797931943e-01
2.470000000000000000e+02 6.920693270690828847e+00
2.480000000000000000e+02 3.352007863334715410e+01
2.490000000000000000e+02 2.865267951877221009e+01
2.500000000000000000e+02 7.678755270898122376e+00
2.510000000000000000e+02 1.505176789713802421e+01
2.520000000000000000e+02 4.728260467330434480e+00
2.530000000000000000e+02 2.260853674963694715e+01
2.540000000000000000e+02 1.329774757901272508e+01
2.550000000000000000e+02 3.971363909977273732e+00
2.560000000000000000e+02 3.924884010578683302e+00
2.570000000000000000e+02 2.011065834266747032e+01
2.580000000000000000e+02 9.621412959344443294e+00
2.590000000000000000e+02 9.803554369425349080e+00
2.600000000000000000e+02 3.428431824139398287e+01
2.610000000000000000e+02 9.188866788425592347e+01
2.620000000000000000e+02 4.649869168014832610e+01
2.630000000000000000e+02 1.436409662795516162e+01
2.640000000000000000e+02 3.152058228583156563e+01
2.650000000000000000e+02 6.860200894835095653e+01
2.660000000000000000e+02 5.432947868104511713e+01
2.670000000000000000e+02 5.738688075502994224e+01
2.680000000000000000e+02 5.441504865588080975e+01
2.690000000000000000e+02 5.979690057652413770e+01
2.700000000000000000e+02 8.793761551960172085e+01
2.710000000000000000e+02 4.348258695498911663e+01
2.720000000000000000e+02 5.001598493466120487e+01
2.730000000000000000e+02 5.075302409666024062e+01
2.740000000000000000e+02 1.474545296972208597e+01
2.750000000000000000e+02 7.808681317983587888e+00
2.760000000000000000e+02 1.074188901970559584e+01
2.770000000000000000e+02 8.906392819784230142e+00
2.780000000000000000e+02 1.669895225637852931e+01
2.790000000000000000e+02 2.018097052893651977e+01
2.800000000000000000e+02 3.305870054749066611e+01
2.810000000000000000e+02 1.419996433520085688e+01
2.820000000000000000e+02 2.426590884463727171e+00
2.830000000000000000e+02 6.932312302778931290e+00
2.840000000000000000e+02 2.820805412569990978e+01
2.850000000000000000e+02 6.646856723916645393e+00
2.860000000000000000e+02 4.416224472723505556e+01
2.870000000000000000e+02 4.185330320472949950e+01
2.880000000000000000e+02 5.350286090852428345e+00
2.890000000000000000e+02 2.590408797759863990e+00
2.900000000000000000e+02 5.017280687616742618e+00
2.910000000000000000e+02 2.839252424600704217e+01
2.920000000000000000e+02 5.117403184816427597e+01
2.930000000000000000e+02 4.237468072806460384e+01
2.940000000000000000e+02 4.094223592408216916e+01
2.950000000000000000e+02 4.625023797137525605e+01
2.960000000000000000e+02 6.217290072599107020e+01
2.970000000000000000e+02 7.141250231487214251e+01
2.980000000000000000e+02 1.731601066791061427e+01
2.990000000000000000e+02 6.219659606305555144e+01
3.000000000000000000e+02 1.012869478095829550e+02
3.010000000000000000e+02 9.240627311074213424e+01
3.020000000000000000e+02 7.907039301804600484e+01
3.030000000000000000e+02 8.957527690935442877e+01
3.040000000000000000e+02 1.225030354624629751e+02
3.050000000000000000e+02 1.459888340593237501e+02
3.060000000000000000e+02 1.248021502800257849e+02
3.070000000000000000e+02 5.819871904396537587e+01
3.080000000000000000e+02 9.124886204521887123e+01
3.090000000000000000e+02 1.022286328438084553e+02
3.100000000000000000e+02 7.490751930734111852e+01
3.110000000000000000e+02 6.271424286247662394e+01
3.120000000000000000e+02 8.174191903546990545e+01
3.130000000000000000e+02 8.970423840489537781e+01
3.140000000000000000e+02 1.055853768720187134e+02
3.150000000000000000e+02 1.176912414436834098e+02
3.160000000000000000e+02 8.378167731798407658e+01
3.170000000000000000e+02 8.818168640945889081e+01
3.180000000000000000e+02 8.585239257208021968e+01
3.190000000000000000e+02 7.742813822858332173e+01
3.200000000000000000e+02 8.028856626633454141e+01
3.210000000000000000e+02 9.313948949595506122e+01
3.220000000000000000e+02 7.084827558182871599e+01
3.230000000000000000e+02 5.183901518979476464e+01
3.240000000000000000e+02 5.477852840696930770e+01
3.250000000000000000e+02 7.212539048330188507e+01
3.260000000000000000e+02 7.203514739058287830e+01
3.270000000000000000e+02 6.748654562124048084e+01
3.280000000000000000e+02 5.357233287017863432e+01
3.290000000000000000e+02 4.166069804604865112e+01
3.300000000000000000e+02 5.955061858120723173e+01
3.310000000000000000e+02 1.747629847469918118e+01
3.320000000000000000e+02 1.253671196639714225e+01
3.330000000000000000e+02 1.212107477909136932e+01
3.340000000000000000e+02 1.367806453753558804e+00
3.350000000000000000e+02 1.785391076539921684e-01
3.360000000000000000e+02 5.484343146235326927e+00
3.370000000000000000e+02 1.782935319162108456e+01
3.380000000000000000e+02 3.155367463596802580e+01
3.390000000000000000e+02 1.671008729205645693e+01
3.400000000000000000e+02 2.200861789047822370e+00
3.410000000000000000e+02 9.358457347853093466e+00
3.420000000000000000e+02 9.049837208463122451e+00
3.430000000000000000e+02 2.856343405724976137e+00
3.440000000000000000e+02 3.234810823687877424e+00
3.450000000000000000e+02 3.505927588881927193e+01
3.460000000000000000e+02 4.059745461107642939e+01
3.470000000000000000e+02 3.722274462352208957e+01
3.480000000000000000e+02 4.860415845260320822e+01
3.490000000000000000e+02 3.704124107861426296e+01
3.500000000000000000e+02 4.773664808753387945e+01
3.510000000000000000e+02 6.394844499066587673e+01
3.520000000000000000e+02 9.750798911014430814e+01
3.530000000000000000e+02 1.429648143123838224e+02
3.540000000000000000e+02 8.305238598423518681e+01
3.550000000000000000e+02 6.189107568436335782e+01
3.560000000000000000e+02 9.092840047915500179e+01
3.570000000000000000e+02 1.282483267164490712e+02
3.580000000000000000e+02 1.226536465367066171e+02
3.590000000000000000e+02 7.953069080273866120e+01
3.600000000000000000e+02 1.038778055507156637e+02
3.610000000000000000e+02 1.509592352550810972e+02
3.620000000000000000e+02 1.556358474797764018e+02
3.630000000000000000e+02 1.093486572910190660e+02
3.640000000000000000e+02 1.451370221484858689e+02
3.650000000000000000e+02 1.706302696950839675e+02
3.660000000000000000e+02 1.689263104127774966e+02
3.670000000000000000e+02 1.602886076747563493e+02
3.680000000000000000e+02 1.662761090437668372e+02
3.690000000000000000e+02 1.569670867454885297e+02
3.700000000000000000e+02 1.293278237087734794e+02
3.710000000000000000e+02 1.136929403028419756e+02
3.720000000000000000e+02 1.346123131715413024e+02
3.730000000000000000e+02 1.488461583903751375e+02
3.740000000000000000e+02 9.941736179838059684e+01
3.750000000000000000e+02 6.853213936112847193e+01
3.760000000000000000e+02 7.933316462559608340e+01
3.770000000000000000e+02 8.762806743206797933e+01
3.780000000000000000e+02 7.827613321717451811e+01
3.790000000000000000e+02 5.891328848786586292e+01
3.800000000000000000e+02 3.465818514830996122e+01
3.810000000000000000e+02 2.484358629614209235e+01
3.820000000000000000e+02 4.813259442024478574e+01
3.830000000000000000e+02 3.370115421904183250e+01
3.840000000000000000e+02 3.085114983201985694e+01
3.850000000000000000e+02 2.001271209292663045e+01
3.860000000000000000e+02 3.633344186683256094e+00
3.870000000000000000e+02 2.834506361543230657e+00
3.880000000000000000e+02 1.661917652769152909e+01
3.890000000000000000e+02 9.916714142293969303e+00
3.900000000000000000e+02 1.032593417672686797e+01
3.910000000000000000e+02 1.779860831570208290e+01
3.920000000000000000e+02 2.046481162414213628e+00
3.930000000000000000e+02 9.090722939639132250e+00
3.940000000000000000e+02 2.739818368180507502e+00
3.950000000000000000e+02 6.809152000414832706e+00
3.960000000000000000e+02 1.431872656988785941e+01
3.970000000000000000e+02 3.218206787803293611e+00
3.980000000000000000e+02 3.424808163244061632e+01
3.990000000000000000e+02 4.273508658233140522e+01
4.000000000000000000e+02 3.616981089400523786e+01
4.010000000000000000e+02 4.904106232109520391e+01
4.020000000000000000e+02 3.238265987142268898e+01
4.030000000000000000e+02 4.634166891723708659e+01
4.040000000000000000e+02 8.515230768720157073e+01
4.050000000000000000e+02 1.202568894234759824e+02
4.060000000000000000e+02 1.365450543248290671e+02
4.070000000000000000e+02 1.791493609831986475e+02
4.080000000000000000e+02 2.103490617921597448e+02
4.090000000000000000e+02 2.217165120514415833e+02
4.100000000000000000e+02 2.330168895457378255e+02
4.110000000000000000e+02 2.618114684505288778e+02
4.120000000000000000e+02 2.551464752126113922e+02
4.130000000000000000e+02 2.684334164696127800e+02
4.140000000000000000e+02 3.121511755444918776e+02
4.150000000000000000e+02 3.624329102675784497e+02
4.160000000000000000e+02 3.973850866210332811e+02
4.170000000000000000e+02 4.347891372744240925e+02
4.180000000000000000e+02 4.686140592823061297e+02
4.190000000000000000e+02 5.174967348475407789e+02
4.200000000000000000e+02 5.675782458506214425e+02
4.210000000000000000e+02 5.779569662103298242e+02
4.220000000000000000e+02 5.681189844430616631e+02
4.230000000000000000e+02 5.707912844048112220e+02
4.240000000000000000e+02 5.539430024268821171e+02
4.250000000000000000e+02 5.284737289359053420e+02
4.260000000000000000e+02 5.558584017005391615e+02
4.270000000000000000e+02 5.344316066376268282e+02
4.280000000000000000e+02 5.576069855009337743e+02
4.290000000000000000e+02 5.931401230817091346e+02
4.300000000000000000e+02 6.092153179630787463e+02
4.310000000000000000e+02 6.354807901057874915e+02
4.320000000000000000e+02 6.378963710493570716e+02
4.330000000000000000e+02 6.783367238332280067e+02
4.340000000000000000e+02 7.247394149139191768e+02
4.350000000000000000e+02 7.539961208670393944e+02
4.360000000000000000e+02 7.913088047500518769e+02
4.370000000000000000e+02 7.755640163036720196e+02
4.380000000000000000e+02 7.625370538892345849e+02
4.390000000000000000e+02 7.478916099149556658e+02
4.400000000000000000e+02 7.446886456336852689e+02
4.410000000000000000e+02 7.929507004148518945e+02
4.420000000000000000e+02 7.974165538892345921e+02
4.430000000000000000e+02 7.887628874922215800e+02
4.440000000000000000e+02 7.996290428541800566e+02
4.450000000000000000e+02 8.176946460485377202e+02
4.460000000000000000e+02 7.972531657747355212e+02
4.470000000000000000e+02 8.323633986932181870e+02
4.480000000000000000e+02 8.385787537025514666e+02
4.490000000000000000e+02 8.728127055578605678e+02
4.500000000000000000e+02 9.411848827214269022e+02
4.510000000000000000e+02 9.456641237087749232e+02
4.520000000000000000e+02 1.001065650767316811e+03
4.530000000000000000e+02 9.884006325243734636e+02
4.540000000000000000e+02 9.878614485791315474e+02
4.550000000000000000e+02 1.044667459863099111e+03
4.560000000000000000e+02 1.067759598506843759e+03
4.570000000000000000e+02 1.076472774528106129e+03
4.580000000000000000e+02 1.041296348060569244e+03
4.590000000000000000e+02 1.019414389879717987e+03
4.600000000000000000e+02 1.048770557560671932e+03
4.610000000000000000e+02 1.095750138145612482e+03
4.620000000000000000e+02 1.033669412570005761e+03
4.630000000000000000e+02 1.010303411118025338e+03
4.640000000000000000e+02 9.779385350342254242e+02
4.650000000000000000e+02 9.131740432482878305e+02
4.660000000000000000e+02 8.578671857913288932e+02
4.670000000000000000e+02 7.850864736776597965e+02
4.680000000000000000e+02 7.121904084629725276e+02
4.690000000000000000e+02 6.281447918481621855e+02
4.700000000000000000e+02 5.631302409043762509e+02
4.710000000000000000e+02 5.450601643227554405e+02
4.720000000000000000e+02 4.728461957270296807e+02
4.730000000000000000e+02 4.541030784069696438e+02
4.740000000000000000e+02 4.165512448662111638e+02
4.750000000000000000e+02 3.436244301804616157e+02
4.760000000000000000e+02 2.946779360638743128e+02
4.770000000000000000e+02 2.897922793196431712e+02
4.780000000000000000e+02 3.189056501555690488e+02
4.790000000000000000e+02 3.436596189133139205e+02
4.800000000000000000e+02 3.145260610454258767e+02
4.810000000000000000e+02 2.370904405724953676e+02
4.820000000000000000e+02 2.531837534632934421e+02
4.830000000000000000e+02 2.848865250777850520e+02
4.840000000000000000e+02 3.058379048952500625e+02
4.850000000000000000e+02 2.910887430941510274e+02
4.860000000000000000e+02 2.581965496784895322e+02
4.870000000000000000e+02 2.745396863721222189e+02
4.880000000000000000e+02 2.678284769135032661e+02
4.890000000000000000e+02 2.572197115328771702e+02
4.900000000000000000e+02 2.448073182534739090e+02
4.910000000000000000e+02 2.322608033803401781e+02
4.920000000000000000e+02 2.375207402613565932e+02
4.930000000000000000e+02 2.285864208255552796e+02
4.940000000000000000e+02 2.036892603069271388e+02
4.950000000000000000e+02 1.687988130885711939e+02
4.960000000000000000e+02 1.460009920348475418e+02
4.970000000000000000e+02 1.547025704272085989e+02
4.980000000000000000e+02 1.454509569591371303e+02
4.990000000000000000e+02 1.215573679734496579e+02
5.000000000000000000e+02 1.056793047698049861e+02
5.010000000000000000e+02 9.986566347230859719e+01
5.020000000000000000e+02 8.937870805849406963e+01
5.030000000000000000e+02 8.275522071147047143e+01
5.040000000000000000e+02 7.261323865795469601e+01
5.050000000000000000e+02 8.035061971997539843e+01
5.060000000000000000e+02 7.124646164903718670e+01
5.070000000000000000e+02 2.271853847127178483e+01
5.080000000000000000e+02 5.593112576229002286e+01
5.090000000000000000e+02 2.712746925741453907e+01
5.100000000000000000e+02 2.984666794648537191e+01
5.110000000000000000e+02 2.157244471686417597e+01
5.120000000000000000e+02 4.205194762655573726e+01
5.130000000000000000e+02 3.490848671437470330e+01
5.140000000000000000e+02 1.240649510267576972e+01
5.150000000000000000e+02 2.949444700539218545e+01
5.160000000000000000e+02 1.049830369425430732e+01
5.170000000000000000e+02 2.004395606305747535e+01
5.180000000000000000e+02 9.601216538366109887e+00
5.190000000000000000e+02 2.071289047915224391e+00
5.200000000000000000e+02 1.203281346401178631e+01
5.210000000000000000e+02 2.461166572169184974e+01
5.220000000000000000e+02 2.066452013690163625e+01
5.230000000000000000e+02 1.616130095581769766e+01
5.240000000000000000e+02 1.391514878473694417e+01
5.250000000000000000e+02 2.146011531964233754e+01
5.260000000000000000e+02 1.297831426986226688e+01
5.270000000000000000e+02 1.701248040232244563e+01
5.280000000000000000e+02 1.299910172993167379e+01
5.290000000000000000e+02 1.428325990043518345e+01
5.300000000000000000e+02 3.077918672682007895e+01
5.310000000000000000e+02 3.033150032565866994e+01
5.320000000000000000e+02 2.816586435594254567e+01
5.330000000000000000e+02 3.133566375233305479e+01
5.340000000000000000e+02 3.628414309894423706e+00
5.350000000000000000e+02 6.704930527691532305e+00
5.360000000000000000e+02 5.124700016801710056e+00
5.370000000000000000e+02 2.891712031735827360e+00
5.380000000000000000e+02 8.825170712715241450e+00
5.390000000000000000e+02 2.611583211574517449e+00
5.400000000000000000e+02 2.953224885915824327e+00
5.410000000000000000e+02 3.639742606098073452e+01
5.420000000000000000e+02 5.641470204103326225e+00
5.430000000000000000e+02 6.697407294544852618e+01
5.440000000000000000e+02 3.164688061800068652e+01
5.450000000000000000e+02 4.276213816220680997e+01
5.460000000000000000e+02 5.687391630989421287e+01
5.470000000000000000e+02 2.771752735794311917e+01
5.480000000000000000e+02 1.655989665007296452e+01
5.490000000000000000e+02 4.283429896287071870e+01
5.500000000000000000e+02 1.591033112816226769e+01
5.510000000000000000e+02 2.565638009334218950e+01
5.520000000000000000e+02 3.249423034225262796e+01
5.530000000000000000e+02 3.955944461219355190e+01
5.540000000000000000e+02 5.724491661273698639e+01
5.550000000000000000e+02 7.534518110143191905e+01
5.560000000000000000e+02 6.872100731798374795e+01
5.570000000000000000e+02 7.514159225886704974e+01
5.580000000000000000e+02 8.429002594067603127e+01
5.590000000000000000e+02 7.665501989836205610e+01
5.600000000000000000e+02 6.229867997510817190e+01
5.610000000000000000e+02 1.026139547272344288e+02
5.620000000000000000e+02 1.035152937979672174e+02
5.630000000000000000e+02 9.078129012238123607e+01
5.640000000000000000e+02 1.186272306533913650e+02
5.650000000000000000e+02 1.576621286869945209e+02
5.660000000000000000e+02 1.275812283758548773e+02
5.670000000000000000e+02 9.774548516905156248e+01
5.680000000000000000e+02 1.266532023858931240e+02
5.690000000000000000e+02 1.435570195147240042e+02
5.700000000000000000e+02 1.432000348060575448e+02
5.710000000000000000e+02 1.586215980709393989e+02
5.720000000000000000e+02 1.463867180008293758e+02
5.730000000000000000e+02 1.456771964530182402e+02
5.740000000000000000e+02 1.576598755030080099e+02
5.750000000000000000e+02 1.802168963085863140e+02
5.760000000000000000e+02 1.925770587222564814e+02
5.770000000000000000e+02 1.713361242688236246e+02
5.780000000000000000e+02 1.676440655744506785e+02
5.790000000000000000e+02 2.080661550300762883e+02
5.800000000000000000e+02 2.859574280024883137e+02
5.810000000000000000e+02 3.150914072169218230e+02
5.820000000000000000e+02 2.845778053515868464e+02
5.830000000000000000e+02 3.894632597179008826e+02
5.840000000000000000e+02 3.702012565027995947e+02
5.850000000000000000e+02 3.690717169466918790e+02
5.860000000000000000e+02 3.982852461107655131e+02
5.870000000000000000e+02 4.356304408214072623e+02
5.880000000000000000e+02 4.774612503007676878e+02
5.890000000000000000e+02 4.878528021779713413e+02
5.900000000000000000e+02 5.123792227546157392e+02
5.910000000000000000e+02 5.621022693839455542e+02
5.920000000000000000e+02 6.027094868906864349e+02
5.930000000000000000e+02 6.053904263430824813e+02
5.940000000000000000e+02 5.902933090645094580e+02
5.950000000000000000e+02 6.476304999585244104e+02
5.960000000000000000e+02 6.772365859987554586e+02
5.970000000000000000e+02 6.699665039410908776e+02
5.980000000000000000e+02 6.569317939639079214e+02
5.990000000000000000e+02 6.507403126737190178e+02
6.000000000000000000e+02 6.096199340385813912e+02
6.010000000000000000e+02 6.057822212196640521e+02
6.020000000000000000e+02 6.185575886952914288e+02
6.030000000000000000e+02 5.906640038996066551e+02
6.040000000000000000e+02 5.433230123210952343e+02
6.050000000000000000e+02 5.635464446172992439e+02
6.060000000000000000e+02 5.226230533914133503e+02
6.070000000000000000e+02 5.114013949802945262e+02
6.080000000000000000e+02 5.262340458411116515e+02
6.090000000000000000e+02 5.516522087741126370e+02
6.100000000000000000e+02 5.755315841941504686e+02
6.110000000000000000e+02 5.274894352831363449e+02
6.120000000000000000e+02 5.688830358357521391e+02
6.130000000000000000e+02 5.784639185231281999e+02
6.140000000000000000e+02 5.680939326073428219e+02
6.150000000000000000e+02 5.581327620074663400e+02
6.160000000000000000e+02 5.277190782410289103e+02
6.170000000000000000e+02 5.324814007259905111e+02
6.180000000000000000e+02 4.662512072998767962e+02
6.190000000000000000e+02 4.560005128189166044e+02
6.200000000000000000e+02 4.510984478946289755e+02
6.210000000000000000e+02 3.911761238490259984e+02
6.220000000000000000e+02 3.675682603816640608e+02
6.230000000000000000e+02 3.304604810205362924e+02
6.240000000000000000e+02 2.846857091474798835e+02
6.250000000000000000e+02 2.706063646546359109e+02
6.260000000000000000e+02 2.599908170089196346e+02
6.270000000000000000e+02 2.099123920141041992e+02
6.280000000000000000e+02 1.748475007467327487e+02
6.290000000000000000e+02 1.711430809997927724e+02
6.300000000000000000e+02 2.122280038788622392e+02
6.310000000000000000e+02 2.061387539099793003e+02
6.320000000000000000e+02 1.557413989421272902e+02
6.330000000000000000e+02 1.442548107031739448e+02
6.340000000000000000e+02 1.181784818257253988e+02
6.350000000000000000e+02 1.324106567724526826e+02
6.360000000000000000e+02 1.160877457996285784e+02
6.370000000000000000e+02 1.028637213811709330e+02
6.380000000000000000e+02 1.191266699439951822e+02
6.390000000000000000e+02 1.157567769342456074e+02
6.400000000000000000e+02 1.302930888428034848e+02
6.410000000000000000e+02 1.349616846919726640e+02
6.420000000000000000e+02 1.215666686786976811e+02
6.430000000000000000e+02 1.285863992119450643e+02
6.440000000000000000e+02 1.558309098112423783e+02
6.450000000000000000e+02 1.220732034225262908e+02
6.460000000000000000e+02 1.295612016590630162e+02
6.470000000000000000e+02 1.314967835096451267e+02
6.480000000000000000e+02 1.440315637212203228e+02
6.490000000000000000e+02 1.440409529240968141e+02
6.500000000000000000e+02 1.199669749222168633e+02
6.510000000000000000e+02 1.536795481642820960e+02
6.520000000000000000e+02 1.651782110350551704e+02
6.530000000000000000e+02 1.412346288736786732e+02
6.540000000000000000e+02 1.485945142501573173e+02
6.550000000000000000e+02 1.855876079029243328e+02
6.560000000000000000e+02 1.967014967226716635e+02
6.570000000000000000e+02 1.875442691142917795e+02
6.580000000000000000e+02 1.885577129226301736e+02
6.590000000000000000e+02 1.652729588674548324e+02
6.600000000000000000e+02 1.453107597593860305e+02
6.610000000000000000e+02 1.468012764364240468e+02
6.620000000000000000e+02 1.535481969923254724e+02
6.630000000000000000e+02 1.822678937772250265e+02
6.640000000000000000e+02 1.270690993777207041e+02
6.650000000000000000e+02 1.073372478946277795e+02
6.660000000000000000e+02 1.118621581294069927e+02
6.670000000000000000e+02 8.030589365691417925e+01
6.680000000000000000e+02 5.568988020535637240e+00
6.690000000000000000e+02 7.164358452095335394e+00
6.700000000000000000e+02 4.747974089400432263e+01
6.710000000000000000e+02 6.735382495955204263e+01
6.720000000000000000e+02 6.527217170883430697e+01
6.730000000000000000e+02 6.724465644057242741e+01
6.740000000000000000e+02 7.256950889856884146e+01
6.750000000000000000e+02 1.439598046038964085e+01
6.760000000000000000e+02 5.833026188964549164e+00
6.770000000000000000e+02 1.610926368388286178e+01
6.780000000000000000e+02 2.268073199751984959e+00
6.790000000000000000e+02 1.356492348164221617e+01
6.800000000000000000e+02 1.635860661895884149e+01
6.810000000000000000e+02 1.922679482887346225e+01
6.820000000000000000e+02 4.514507484131732085e+00
6.830000000000000000e+02 1.459582555797565639e+01
6.840000000000000000e+02 1.674105754200331830e+01
6.850000000000000000e+02 1.379272639763484598e+01
6.860000000000000000e+02 4.239980451773494963e+01
6.870000000000000000e+02 7.526179595520032350e+00
6.880000000000000000e+02 9.390536958514573485e+00
6.890000000000000000e+02 3.544242519186883555e+01
6.900000000000000000e+02 2.897218540966572320e+01
6.910000000000000000e+02 1.096159821406347490e+00
6.920000000000000000e+02 8.591714921609215239e+00
6.930000000000000000e+02 2.923792724953332822e+01
6.940000000000000000e+02 1.097333646214479508e+01
6.950000000000000000e+02 1.228193960078802682e+01
6.960000000000000000e+02 1.777231197261972540e+01
6.970000000000000000e+02 1.480797791122168050e+01
6.980000000000000000e+02 1.907149615512235030e+01
6.990000000000000000e+02 1.817638032773286483e+01
7.000000000000000000e+02 3.089797197759737912e+01
7.010000000000000000e+02 5.472448348890280556e+01
7.020000000000000000e+02 2.585289974071902108e+01
7.030000000000000000e+02 1.022086904189990619e+01
7.040000000000000000e+02 5.840277649035510166e+01
7.050000000000000000e+02 3.171517867689786740e+01
7.060000000000000000e+02 2.417765848786556404e+01
7.070000000000000000e+02 6.763035228242244123e+00
7.080000000000000000e+02 2.523303752799502320e+01
7.090000000000000000e+02 4.541855615432598370e+01
7.100000000000000000e+02 3.451454269446471379e+00
7.110000000000000000e+02 6.585040097469507359e+00
7.120000000000000000e+02 1.546628239991706089e+01
7.130000000000000000e+02 1.372142856876050310e+01
7.140000000000000000e+02 9.268367609291702891e+00
7.150000000000000000e+02 9.902206772246525901e+00
7.160000000000000000e+02 1.202787026301546014e+01
7.170000000000000000e+02 3.491384374741069330e+00
7.180000000000000000e+02 8.466096540136550885e+00
7.190000000000000000e+02 2.382280415888788738e+01
7.200000000000000000e+02 2.993250235843187568e+01
7.210000000000000000e+02 1.599546849699244433e+01
7.220000000000000000e+02 1.603992018046056600e+01
7.230000000000000000e+02 7.637537032980961982e+00
7.240000000000000000e+02 9.383432233561691760e+00
7.250000000000000000e+02 5.656386799626739048e+01
7.260000000000000000e+02 7.299851552582521208e+01
7.270000000000000000e+02 3.483047141256798795e+01
7.280000000000000000e+02 8.142813070110218376e+00
7.290000000000000000e+02 8.119719736569695812e+00
7.300000000000000000e+02 6.219706877825863955e+01
7.310000000000000000e+02 2.795410954375903501e+01
7.320000000000000000e+02 4.143010176104384357e+01
7.330000000000000000e+02 6.053118617299448800e+01
7.340000000000000000e+02 2.748062782455460251e+01
7.350000000000000000e+02 1.851259729724120007e+01
7.360000000000000000e+02 2.933336995021758398e+01
7.370000000000000000e+02 5.864601348403150638e+01
7.380000000000000000e+02 5.681307753992923182e+01
7.390000000000000000e+02 5.564728554864159804e+01
7.400000000000000000e+02 6.158376848403123915e+01
7.410000000000000000e+02 4.439312915370215507e+01
7.420000000000000000e+02 4.368624820784078366e+01
7.430000000000000000e+02 4.963864267109039474e+01
7.440000000000000000e+02 6.464153302219546049e+01
7.450000000000000000e+02 5.179897677660089528e+01
7.460000000000000000e+02 2.559399897324252038e+01
7.470000000000000000e+02 3.088896329184574086e+01
7.480000000000000000e+02 7.667752523335445858e+01
7.490000000000000000e+02 2.924618107861500249e+01
7.500000000000000000e+02 2.300173734909735757e+01
7.510000000000000000e+02 4.694557233561455689e+01
7.520000000000000000e+02 4.851574610039397584e+01
7.530000000000000000e+02 3.702245046048542321e+01
7.540000000000000000e+02 5.588026834474180049e+01
7.550000000000000000e+02 5.202230253889228351e+01
7.560000000000000000e+02 7.265873335822510626e+01
7.570000000000000000e+02 7.421010435801676408e+01
7.580000000000000000e+02 4.964583831362629951e+01
7.590000000000000000e+02 2.547521556316123537e+01
7.600000000000000000e+02 3.865695198672898414e+01
7.610000000000000000e+02 8.337144416096312227e+01
7.620000000000000000e+02 8.152839977390530635e+01
7.630000000000000000e+02 6.314514084612133615e+01
7.640000000000000000e+02 4.646079204729340972e+01
7.650000000000000000e+02 2.963080013067881779e+01
7.660000000000000000e+02 2.976686047915424282e+01
7.670000000000000000e+02 6.990312469197276357e+01
7.680000000000000000e+02 4.936911909166265389e+01
7.690000000000000000e+02 4.305292549678488712e+01
7.700000000000000000e+02 5.311170100808954686e+01
7.710000000000000000e+02 4.879231977187855307e+01
7.720000000000000000e+02 4.475683487865617849e+01
7.730000000000000000e+02 7.623960630574570985e+01
7.740000000000000000e+02 1.053678303588463905e+02
7.750000000000000000e+02 5.916933136486174050e+01
7.760000000000000000e+02 2.341420283758561283e+01
7.770000000000000000e+02 2.808401668326099099e+01
7.780000000000000000e+02 3.863814498651729679e+01
7.790000000000000000e+02 3.886804079444085147e+01
7.800000000000000000e+02 5.574527840904378451e+01
7.810000000000000000e+02 2.810562642190421911e+01
7.820000000000000000e+02 3.166981516697759602e+01
7.830000000000000000e+02 5.741426346816024306e+01
7.840000000000000000e+02 5.299948285210552967e+01
7.850000000000000000e+02 3.403823013687231480e+01
7.860000000000000000e+02 5.125489541381456604e+01
7.870000000000000000e+02 3.385042590748789593e+01
7.880000000000000000e+02 1.949463340522611432e+01
7.890000000000000000e+02 2.338322220701095944e+01
7.900000000000000000e+02 2.051148028002510060e+01
7.910000000000000000e+02 1.811454270012428935e+01
7.920000000000000000e+02 3.012781400331875403e+01
7.930000000000000000e+02 3.774806505911615773e+01
7.940000000000000000e+02 5.275622065947732864e+01
7.950000000000000000e+02 1.940114837585612406e+01
7.960000000000000000e+02 2.781826685542329614e+01
7.970000000000000000e+02 3.627069738282877154e+01
7.980000000000000000e+02 2.501235494295798389e+01
7.990000000000000000e+02 3.039560934038561868e+01
8.000000000000000000e+02 3.401966851275647485e+01
8.010000000000000000e+02 3.568191504252313351e+00
8.020000000000000000e+02 1.330822089027185484e+01
8.030000000000000000e+02 3.629362037129212837e+01
8.040000000000000000e+02 4.361120255756082997e+01
8.050000000000000000e+02 2.918388754615124725e+01
8.060000000000000000e+02 1.009927211076495546e+01
8.070000000000000000e+02 1.268667916822270847e+01
8.080000000000000000e+02 2.073148848039684111e+01
8.090000000000000000e+02 3.287894456129430409e+01
8.100000000000000000e+02 6.261851829288348625e+01
8.110000000000000000e+02 6.908657211159606959e+01
8.120000000000000000e+02 2.509043102675820336e+01
8.130000000000000000e+02 1.753879423771004653e+01
8.140000000000000000e+02 2.167259153048474829e+01
8.150000000000000000e+02 5.410550114291638835e+01
8.160000000000000000e+02 4.888558571873060998e+01
8.170000000000000000e+02 3.030534909581081493e+01
8.180000000000000000e+02 3.422839100809007107e+01
8.190000000000000000e+02 3.984369198091643227e+01
8.200000000000000000e+02 1.558245481542926036e+01
8.210000000000000000e+02 5.079156118647426155e+01
8.220000000000000000e+02 6.222335570006203653e+01
8.230000000000000000e+02 3.133836313562992615e+01
8.240000000000000000e+02 3.549735711470484034e+01
8.250000000000000000e+02 7.276327166977662841e+01
8.260000000000000000e+02 7.466457212404110066e+01
8.270000000000000000e+02 5.810604165525849396e+01
8.280000000000000000e+02 4.798129182327453179e+01
8.290000000000000000e+02 1.634720244720977789e+01
8.300000000000000000e+02 2.061078003318733209e+01
8.310000000000000000e+02 4.954712345364097814e+01
8.320000000000000000e+02 2.476519842771152469e+01
8.330000000000000000e+02 7.710524053504779829e+01
8.340000000000000000e+02 7.252066662518119244e+01
8.350000000000000000e+02 2.905681225264422807e+01
8.360000000000000000e+02 4.685959564081424844e+01
8.370000000000000000e+02 6.333101258037756054e+01
8.380000000000000000e+02 6.613788526031967763e+01
8.390000000000000000e+02 6.981719646131465140e+01
8.400000000000000000e+02 6.250554013690094024e+01
8.410000000000000000e+02 5.723329460485319231e+01
8.420000000000000000e+02 3.478588536610718762e+01
8.430000000000000000e+02 2.982329311138742867e+01
8.440000000000000000e+02 3.982815629744903418e+01
8.450000000000000000e+02 5.284705066583676114e+01
8.460000000000000000e+02 6.050938262393693634e+01
8.470000000000000000e+02 5.874767527276501511e+01
8.480000000000000000e+02 5.968887711470651425e+01
8.490000000000000000e+02 6.550576988176727866e+01
8.500000000000000000e+02 2.607640546774506163e+01
8.510000000000000000e+02 4.721486442854354948e+01
8.520000000000000000e+02 7.330817959344449264e+01
8.530000000000000000e+02 5.105525287017880487e+01
8.540000000000000000e+02 6.507012299315448445e+01
8.550000000000000000e+02 4.786557151835698676e+01
8.560000000000000000e+02 4.507382210908330222e+01
8.570000000000000000e+02 3.819389417340784121e+01
8.580000000000000000e+02 4.467262128811483279e+01
8.590000000000000000e+02 7.154024799253514288e+01
8.600000000000000000e+02 7.097547557560798737e+01
8.610000000000000000e+02 1.875949574569558109e+01
8.620000000000000000e+02 4.018497166113696295e+01
8.630000000000000000e+02 3.865710657125078598e+01
8.640000000000000000e+02 3.701893719560256812e+01
8.650000000000000000e+02 5.317578796764880167e+01
8.660000000000000000e+02 6.199211246421877775e+01
8.670000000000000000e+02 3.947399200995610613e+01
8.680000000000000000e+02 8.198027578096148460e+00
8.690000000000000000e+02 2.837219243517957779e+01
8.700000000000000000e+02 3.248793838830118119e+01
8.710000000000000000e+02 3.090824047293090970e+01
8.720000000000000000e+02 3.319567483509649719e+01
8.730000000000000000e+02 4.028106210122380304e+01
8.740000000000000000e+02 5.226486137108508245e+01
8.750000000000000000e+02 5.755237294752121358e+01
8.760000000000000000e+02 3.137295862476672781e+01
8.770000000000000000e+02 4.685687867454871736e+01
8.780000000000000000e+02 3.782228517320056937e+01
8.790000000000000000e+02 3.265728599958517009e+01
8.800000000000000000e+02 4.731436046670827267e+01
8.810000000000000000e+02 5.335407700684515930e+01
8.820000000000000000e+02 4.016845738697615786e+01
8.830000000000000000e+02 6.086368688031524243e+01
8.840000000000000000e+02 2.882301661688459760e+01
8.850000000000000000e+02 4.060500980505999280e+01
8.860000000000000000e+02 4.643260441194775012e+01
8.870000000000000000e+02 3.275499416096268845e+01
8.880000000000000000e+02 3.618103668602230272e+01
8.890000000000000000e+02 5.851792819124653988e+01
8.900000000000000000e+02 6.533656247044179111e+01
8.910000000000000000e+02 5.505799822895068019e+01
8.920000000000000000e+02 2.328684676830563660e+01
8.930000000000000000e+02 3.432334452810610514e+01
8.940000000000000000e+02 1.765026266957077894e+01
8.950000000000000000e+02 7.076145692594865366e+00
8.960000000000000000e+02 1.175733888010817552e+01
8.970000000000000000e+02 4.371411317842306943e+01
8.980000000000000000e+02 2.561663471686364701e+01
8.990000000000000000e+02 1.825189335407592495e+01
9.000000000000000000e+02 2.828122352001685869e+01
9.010000000000000000e+02 1.725334152457923054e+01
9.020000000000000000e+02 1.092332838249295790e+01
9.030000000000000000e+02 3.873646895457194006e+01
9.040000000000000000e+02 5.868658644057200036e+01
9.050000000000000000e+02 7.878385505083631557e+00
9.060000000000000000e+02 1.892013560463581490e+00
9.070000000000000000e+02 3.344336419742759858e+01
9.080000000000000000e+02 3.988464551337911956e+01
9.090000000000000000e+02 3.842389797967214804e+01
9.100000000000000000e+02 3.927163461841568193e+01
9.110000000000000000e+02 3.908607773490977166e+01
9.120000000000000000e+02 3.838016438083389659e+01
9.130000000000000000e+02 7.962146752385082848e+00
9.140000000000000000e+02 2.438276954781260031e+01
9.150000000000000000e+02 4.169266715826587699e+01
9.160000000000000000e+02 7.483879094776188623e+00
9.170000000000000000e+02 1.520420400746746736e+01
9.180000000000000000e+02 4.763994390582897154e+01
9.190000000000000000e+02 3.499462000414861507e+01
9.200000000000000000e+02 6.222439872848093501e+01
9.210000000000000000e+02 2.666827315221830830e+01
9.220000000000000000e+02 2.536495002489121475e+01
9.230000000000000000e+02 5.424064373365780511e+00
9.240000000000000000e+02 9.116173921608350383e+00
9.250000000000000000e+02 2.393940043766877679e+01
9.260000000000000000e+02 3.453870072806400682e+00
9.270000000000000000e+02 1.205740913811690085e+01
9.280000000000000000e+02 1.055079971748625667e+01
9.290000000000000000e+02 5.569295684919958411e+00
9.300000000000000000e+02 2.417190326213357832e+00
9.310000000000000000e+02 1.845075748599730225e+00
9.320000000000000000e+02 9.343118215101178237e+00
9.330000000000000000e+02 8.597404000000254953e+00
9.340000000000000000e+02 1.310196934453411366e+01
9.350000000000000000e+02 7.414837011200944517e+00
9.360000000000000000e+02 8.635708919726010180e+00
9.370000000000000000e+02 1.617986841734072101e+01
9.380000000000000000e+02 1.026095109914995085e+01
9.390000000000000000e+02 2.820331164281312031e+00
9.400000000000000000e+02 9.916947797137257936e+00
9.410000000000000000e+02 8.278146371292741890e+00
9.420000000000000000e+02 1.893629174237702273e+01
9.430000000000000000e+02 1.028774281559853598e+01
9.440000000000000000e+02 2.801718566894865603e+01
9.450000000000000000e+02 3.505859230864943044e+01
9.460000000000000000e+02 1.402304608172500444e+01
9.470000000000000000e+02 1.703190020530951188e+01
9.480000000000000000e+02 1.240552713959782949e+01
9.490000000000000000e+02 2.058550847044032395e+01
9.500000000000000000e+02 8.754888282870068039e+00
9.510000000000000000e+02 4.018233995644165901e+01
9.520000000000000000e+02 5.266027068865365379e+01
9.530000000000000000e+02 3.589289284943946257e+01
9.540000000000000000e+02 1.896048387056647755e+01
9.550000000000000000e+02 1.868534687616658374e+01
9.560000000000000000e+02 3.506763398175095148e+01
9.570000000000000000e+02 6.032849324828882231e+01
9.580000000000000000e+02 7.733892956440573130e+01
9.590000000000000000e+02 5.546687689340467387e+01
9.600000000000000000e+02 5.241004155154603694e+01
9.610000000000000000e+02 9.946881566065165714e+01
9.620000000000000000e+02 9.530517074673240074e+01
9.630000000000000000e+02 1.024214038174280432e+02
9.640000000000000000e+02 1.409213019705457270e+02
9.650000000000000000e+02 1.569851601120099360e+02
9.660000000000000000e+02 1.719214889234595773e+02
9.670000000000000000e+02 2.120406972619790906e+02
9.680000000000000000e+02 2.705297338104124947e+02
9.690000000000000000e+02 3.254266534743821353e+02
9.700000000000000000e+02 3.777974863928645846e+02
9.710000000000000000e+02 4.354934422526441722e+02
9.720000000000000000e+02 5.326349863721197835e+02
9.730000000000000000e+02 6.708847921593027195e+02
9.740000000000000000e+02 8.065643440572482632e+02
9.750000000000000000e+02 1.018467492741596629e+03
9.760000000000000000e+02 1.268336690728062649e+03
9.770000000000000000e+02 1.619220978635144093e+03
9.780000000000000000e+02 2.067167253007042291e+03
9.790000000000000000e+02 2.639797833022187660e+03
9.800000000000000000e+02 3.291825881767254941e+03
9.810000000000000000e+02 3.978930479054322404e+03
9.820000000000000000e+02 4.707404274009531946e+03
9.830000000000000000e+02 5.304702023231679050e+03
9.840000000000000000e+02 6.009601771049347008e+03
9.850000000000000000e+02 6.807686113876773561e+03
9.860000000000000000e+02 7.630790634723063704e+03
9.870000000000000000e+02 8.365963822443469326e+03
9.880000000000000000e+02 9.077745668118637695e+03
9.890000000000000000e+02 9.875257241443670864e+03
9.900000000000000000e+02 1.071033411325451925e+04
9.910000000000000000e+02 1.122083093549056321e+04
9.920000000000000000e+02 1.096012684920140418e+04
9.930000000000000000e+02 9.809174855009367093e+03
9.940000000000000000e+02 7.956873249533230592e+03
9.950000000000000000e+02 6.118818716448820851e+03
9.960000000000000000e+02 4.546259859780166153e+03
9.970000000000000000e+02 3.269243397220531278e+03
9.980000000000000000e+02 2.429266991910423712e+03
9.990000000000000000e+02 1.883663986932185708e+03
1.000000000000000000e+03 1.479088382413941190e+03
1.001000000000000000e+03 1.263474751037339502e+03
1.002000000000000000e+03 1.158284956431535875e+03
1.003000000000000000e+03 1.082728477178425692e+03
1.004000000000000000e+03 1.033754618257260972e+03
1.005000000000000000e+03 1.027585609958505984e+03
1.006000000000000000e+03 1.071915585062243508e+03
1.007000000000000000e+03 1.159528499999999894e+03
1.008000000000000000e+03 1.188929033195020565e+03
1.009000000000000000e+03 1.289637997925311993e+03
1.010000000000000000e+03 1.381327242738587984e+03
1.011000000000000000e+03 1.469182043478263722e+03
1.012000000000000000e+03 1.586959556016595343e+03
1.013000000000000000e+03 1.713116522821582066e+03
1.014000000000000000e+03 1.804628580912862617e+03
1.015000000000000000e+03 1.841461993775933479e+03
1.016000000000000000e+03 1.830580734439833122e+03
1.017000000000000000e+03 1.769188641078841101e+03
1.018000000000000000e+03 1.651102499999994507e+03
1.019000000000000000e+03 1.400470217391308779e+03
1.020000000000000000e+03 1.128820730290454776e+03
1.021000000000000000e+03 8.994041999999985819e+02
1.022000000000000000e+03 6.896835962655607091e+02
1.023000000000000000e+03 5.109320834368485293e+02
1.024000000000000000e+03 3.909182728215785119e+02
1.025000000000000000e+03 2.895420709543525959e+02
1.026000000000000000e+03 1.993220761410701130e+02
1.027000000000000000e+03 1.537893744813298724e+02
1.028000000000000000e+03 1.053017558506213902e+02
1.029000000000000000e+03 6.846723585062062511e+01
1.030000000000000000e+03 3.863835066390376483e+01
1.031000000000000000e+03 1.666041551867176551e+01
1.032000000000000000e+03 1.673134542738277375e+01
1.033000000000000000e+03 2.651603578838177100e+01
1.034000000000000000e+03 1.161696132987373353e+01
1.035000000000000000e+03 2.812621064315355568e+01
1.036000000000000000e+03 2.273463896265466389e+01
1.037000000000000000e+03 1.558442020746928236e+01
1.038000000000000000e+03 5.344630136929545472e+00
1.039000000000000000e+03 2.453664112033295197e+01
1.040000000000000000e+03 2.497381074534266787e+01
1.041000000000000000e+03 1.033972446472854223e+01
1.042000000000000000e+03 4.845852448132645662e+01
1.043000000000000000e+03 5.723417651453968524e+00
1.044000000000000000e+03 1.209617753622754677e+01
1.045000000000000000e+03 8.795162547717886525e+01
1.046000000000000000e+03 1.269002551867219921e+02
1.047000000000000000e+03 1.285327651452282964e+02
1.048000000000000000e+03 1.200951703933755681e+02
1.049000000000000000e+03 1.064703877593363472e+02
1.050000000000000000e+03 1.305116827800865451e+02
1.051000000000000000e+03 1.626012010373431735e+02
1.052000000000000000e+03 1.436753018633536669e+02
1.053000000000000000e+03 1.665376008298785848e+02
1.054000000000000000e+03 2.059791655601625280e+02
1.055000000000000000e+03 2.109914937759336624e+02
1.056000000000000000e+03 2.404053055900650122e+02
1.057000000000000000e+03 2.936589923236520576e+02
1.058000000000000000e+03 3.078207441908695046e+02
1.059000000000000000e+03 3.373096273858922132e+02
1.060000000000000000e+03 3.344289620331943524e+02
1.061000000000000000e+03 3.302306775933603262e+02
1.062000000000000000e+03 3.641256531120326940e+02
1.063000000000000000e+03 4.117836157676370590e+02
1.064000000000000000e+03 4.297231875518672837e+02
1.065000000000000000e+03 4.235814956521742829e+02
1.066000000000000000e+03 4.260966935684651276e+02
1.067000000000000000e+03 4.411843087136935537e+02
1.068000000000000000e+03 4.345523647302893551e+02
1.069000000000000000e+03 4.438532726141078228e+02
1.070000000000000000e+03 4.281944178423232756e+02
1.071000000000000000e+03 4.306360742738582417e+02
1.072000000000000000e+03 4.332866049792533545e+02
1.073000000000000000e+03 4.162889496894402441e+02
1.074000000000000000e+03 3.937288902489627276e+02
1.075000000000000000e+03 3.485991130705446608e+02
1.076000000000000000e+03 3.198125358921159886e+02
1.077000000000000000e+03 3.880593369294627450e+02
1.078000000000000000e+03 3.757118033195045541e+02
1.079000000000000000e+03 3.335690605809138560e+02
1.080000000000000000e+03 3.165037854771782122e+02
1.081000000000000000e+03 3.557383991701295258e+02
1.082000000000000000e+03 3.566371344398349947e+02
1.083000000000000000e+03 3.664314300829880153e+02
1.084000000000000000e+03 3.849016717842303024e+02
1.085000000000000000e+03 3.590165602484491387e+02
1.086000000000000000e+03 3.554411991701240936e+02
1.087000000000000000e+03 3.966752107883833105e+02
1.088000000000000000e+03 4.148884136929460169e+02
1.089000000000000000e+03 4.119332738589216092e+02
1.090000000000000000e+03 4.018929571428569147e+02
1.091000000000000000e+03 3.860955219916996839e+02
1.092000000000000000e+03 3.595073887966831876e+02
1.093000000000000000e+03 3.518657475103731826e+02
1.094000000000000000e+03 3.522098600414070120e+02
1.095000000000000000e+03 3.179346713692974049e+02
1.096000000000000000e+03 2.859940580912892756e+02
1.097000000000000000e+03 2.314989908713697275e+02
1.098000000000000000e+03 2.745640522821587410e+02
1.099000000000000000e+03 2.616663800829904289e+02
1.100000000000000000e+03 2.088416653526973334e+02
1.101000000000000000e+03 1.967577491701254644e+02
1.102000000000000000e+03 2.031829811594202511e+02
1.103000000000000000e+03 1.571951887966830839e+02
1.104000000000000000e+03 9.550197394190789169e+01
1.105000000000000000e+03 1.080105551867246731e+02
1.106000000000000000e+03 1.293491531120330365e+02
1.107000000000000000e+03 6.732469304979190383e+01
1.108000000000000000e+03 8.274549792531323078e+01
1.109000000000000000e+03 7.047659288382050136e+01
1.110000000000000000e+03 3.575244000000081712e+01
1.111000000000000000e+03 3.532236078838289473e+01
1.112000000000000000e+03 4.762369734439803182e+01
1.113000000000000000e+03 2.426981485477488931e+01
1.114000000000000000e+03 4.014348670807387442e+00
1.115000000000000000e+03 1.295004560165874352e+01
1.116000000000000000e+03 4.974360369294246631e+00
1.117000000000000000e+03 1.660539047717814043e+01
1.118000000000000000e+03 1.402775240664051282e+01
1.119000000000000000e+03 1.671745619047705134e+01
1.120000000000000000e+03 3.887062153526814257e+01
1.121000000000000000e+03 8.884099282156348920e+00
1.122000000000000000e+03 3.556783917012376861e+01
1.123000000000000000e+03 1.521333684647351703e+01
1.124000000000000000e+03 2.064115064315364023e+01
1.125000000000000000e+03 1.099302404564616609e+01
1.126000000000000000e+03 4.600932392116093439e+01
1.127000000000000000e+03 6.134834713692352892e+00
1.128000000000000000e+03 7.470681917013312301e+00
1.129000000000000000e+03 1.871319253112053715e+01
1.130000000000000000e+03 3.640253311203137088e+01
1.131000000000000000e+03 2.887945971014483248e+01
1.132000000000000000e+03 3.350340095435961985e+01
1.133000000000000000e+03 6.222482309128570677e+01
1.134000000000000000e+03 6.636253929460517043e+01
1.135000000000000000e+03 1.011133082572621902e+02
1.136000000000000000e+03 1.150153390041526791e+02
1.137000000000000000e+03 1.491884236514520410e+02
1.138000000000000000e+03 1.395637360995850429e+02
1.139000000000000000e+03 1.485642975103747290e+02
1.140000000000000000e+03 1.608710958506213728e+02
1.141000000000000000e+03 1.966474132780070079e+02
1.142000000000000000e+03 2.206135360995845645e+02
1.143000000000000000e+03 2.449598887966878635e+02
1.144000000000000000e+03 3.040550813277997122e+02
1.145000000000000000e+03 2.946071253112028785e+02
1.146000000000000000e+03 2.593073506224058065e+02
1.147000000000000000e+03 2.987235900414909224e+02
1.148000000000000000e+03 2.916469161490684883e+02
1.149000000000000000e+03 2.968347406639003339e+02
1.150000000000000000e+03 2.735698288381740326e+02
1.151000000000000000e+03 3.104541236514481852e+02
1.152000000000000000e+03 3.524222240165630069e+02
1.153000000000000000e+03 3.360513788381720701e+02
1.154000000000000000e+03 3.213164124481320414e+02
1.155000000000000000e+03 3.103561091286313740e+02
1.156000000000000000e+03 2.583664633540347495e+02
1.157000000000000000e+03 2.305798632780085597e+02
1.158000000000000000e+03 2.165021900414945151e+02
1.159000000000000000e+03 1.682799037344386193e+02
1.160000000000000000e+03 1.411319795031041622e+02
1.161000000000000000e+03 1.465178871369286071e+02
1.162000000000000000e+03 1.417372000000000014e+02
1.163000000000000000e+03 1.276202917012447102e+02
1.164000000000000000e+03 1.230856956521750192e+02
1.165000000000000000e+03 1.062425991493782647e+02
1.166000000000000000e+03 8.492885406639034329e+01
1.167000000000000000e+03 8.963813182572593519e+01
1.168000000000000000e+03 5.753933093361246165e+01
1.169000000000000000e+03 3.078557863070535916e+01
1.170000000000000000e+03 6.831565535270105727e+01
1.171000000000000000e+03 6.858408829875787660e+01
1.172000000000000000e+03 4.236075182572682252e+01
1.173000000000000000e+03 3.024168761410757611e+01
1.174000000000000000e+03 2.419710294605871326e+01
1.175000000000000000e+03 8.686863101661041142e+00
1.176000000000000000e+03 4.598754037267649863e+00
1.177000000000000000e+03 6.132418941908612453e+01
1.178000000000000000e+03 3.481938481327986068e+01
1.179000000000000000e+03 2.421830647302880024e+01
1.180000000000000000e+03 5.076979062240803131e+01
1.181000000000000000e+03 7.931086944099406821e+01
1.182000000000000000e+03 6.877276037344498150e+01
1.183000000000000000e+03 6.845289118257304040e+01
1.184000000000000000e+03 8.220772545643208673e+01
1.185000000000000000e+03 9.282124215320810379e+01
1.186000000000000000e+03 1.168071763485476993e+02
1.187000000000000000e+03 1.413185788381750285e+02
1.188000000000000000e+03 1.397788813278009741e+02
1.189000000000000000e+03 1.472239788381730534e+02
1.190000000000000000e+03 1.954440802904565260e+02
1.191000000000000000e+03 1.784338479253123637e+02
1.192000000000000000e+03 2.268652715767592838e+02
1.193000000000000000e+03 2.547612157349896620e+02
1.194000000000000000e+03 2.341454829875495705e+02
1.195000000000000000e+03 2.211726124481319573e+02
1.196000000000000000e+03 2.254683609958506452e+02
1.197000000000000000e+03 1.953286331950188242e+02
1.198000000000000000e+03 1.215642207468908111e+02
1.199000000000000000e+03 7.390125925311333788e+01
1.200000000000000000e+03 7.594238311203318403e+01
1.201000000000000000e+03 4.520679195020530727e+01
1.202000000000000000e+03 4.800570006211091822e+01
1.203000000000000000e+03 6.875846755186677228e+01
1.204000000000000000e+03 9.588127414937743254e+01
1.205000000000000000e+03 5.150952136929007708e+01
1.206000000000000000e+03 3.614348114107693988e+01
1.207000000000000000e+03 4.050912825725993116e+01
1.208000000000000000e+03 1.085920973029236736e+00
1.209000000000000000e+03 2.965761981327445618e+00
1.210000000000000000e+03 8.217575645962632791e+00
1.211000000000000000e+03 1.974390780083072627e+01
1.212000000000000000e+03 3.299498966805010980e+01
1.213000000000000000e+03 1.187724967634783546e+01
1.214000000000000000e+03 3.806939256431620322e+01
1.215000000000000000e+03 3.479582717842002637e+01
1.216000000000000000e+03 1.435533336098243629e+00
1.217000000000000000e+03 1.847460101659752496e+01
1.218000000000000000e+03 1.336061259627679121e+01
1.219000000000000000e+03 4.843459481328042671e+01
1.220000000000000000e+03 2.429415435684721203e+01
1.221000000000000000e+03 2.077267867219996944e+01
1.222000000000000000e+03 5.101317861283637001e+01
1.223000000000000000e+03 5.130742363070633161e+01
1.224000000000000000e+03 1.750190582987534071e+01
1.225000000000000000e+03 1.507402029045729286e+01
1.226000000000000000e+03 3.196911892115878118e+01
1.227000000000000000e+03 5.811661257261403790e+01
1.228000000000000000e+03 3.206763547717648066e+01
1.229000000000000000e+03 2.179454419087199568e+01
1.230000000000000000e+03 1.877239626556131569e+01
1.231000000000000000e+03 2.202343045643235087e+01
1.232000000000000000e+03 4.667549093360849355e+01
1.233000000000000000e+03 2.224317139626870699e+01
1.234000000000000000e+03 4.048860879668064960e+00
1.235000000000000000e+03 1.046529977178586357e+01
1.236000000000000000e+03 3.849414000000009395e+01
1.237000000000000000e+03 3.220744975103744423e+01
1.238000000000000000e+03 5.633635510373483868e+01
1.239000000000000000e+03 7.389523302277477512e+01
1.240000000000000000e+03 4.636577085062583592e+01
1.241000000000000000e+03 6.109145641078775668e+01
1.242000000000000000e+03 7.199903580912766188e+01
1.243000000000000000e+03 3.271994325051516483e+01
1.244000000000000000e+03 3.422436132779818507e+01
1.245000000000000000e+03 7.152315120331807918e+01
1.246000000000000000e+03 4.012748821577190483e+01
1.247000000000000000e+03 8.329653977225795813e+01
1.248000000000000000e+03 4.240415112033181089e+01
1.249000000000000000e+03 3.294199730290591788e+01
1.250000000000000000e+03 7.495760871369313350e+01
1.251000000000000000e+03 8.113465801242257669e+01
1.252000000000000000e+03 6.437345311203236520e+01
1.253000000000000000e+03 7.778258141079265897e+01
1.254000000000000000e+03 6.953468759336344363e+01
1.255000000000000000e+03 3.027157298755203385e+01
1.256000000000000000e+03 2.335978114107959058e+01
1.257000000000000000e+03 4.795011997925113434e+01
1.258000000000000000e+03 5.878346091286361030e+01
1.259000000000000000e+03 3.977937269709535428e+01
1.260000000000000000e+03 3.485919672199056407e+01
1.261000000000000000e+03 1.187458119087174424e+01
1.262000000000000000e+03 2.126157979253128261e+01
1.263000000000000000e+03 3.143189937759395036e+01
1.264000000000000000e+03 5.312434956521583018e+01
1.265000000000000000e+03 1.826005792738674671e+01
1.266000000000000000e+03 3.235520167427730343e+01
1.267000000000000000e+03 5.777716313278119742e+01
1.268000000000000000e+03 5.279234155279438312e+01
1.269000000000000000e+03 6.123670319502064530e+01
1.270000000000000000e+03 3.298371941908376215e+01
1.271000000000000000e+03 4.276322365142865012e-01
1.272000000000000000e+03 5.249833043477580841e-01
1.273000000000000000e+03 7.013231315353417372e+00
1.274000000000000000e+03 1.800800082987403883e+01
1.275000000000000000e+03 2.806072207468898227e+01
1.276000000000000000e+03 0.000000000000000000e+00
1.277000000000000000e+03 0.000000000000000000e+00
1.278000000000000000e+03 0.000000000000000000e+00
1.279000000000000000e+03 0.000000000000000000e+00
1.280000000000000000e+03 0.000000000000000000e+00
1.281000000000000000e+03 0.000000000000000000e+00
1.282000000000000000e+03 0.000000000000000000e+00
1.283000000000000000e+03 0.000000000000000000e+00
1.284000000000000000e+03 0.000000000000000000e+00
1.285000000000000000e+03 0.000000000000000000e+00
1.286000000000000000e+03 0.000000000000000000e+00
1.287000000000000000e+03 0.000000000000000000e+00
1.288000000000000000e+03 0.000000000000000000e+00
1.289000000000000000e+03 0.000000000000000000e+00
1.290000000000000000e+03 0.000000000000000000e+00
1.291000000000000000e+03 0.000000000000000000e+00
1.292000000000000000e+03 0.000000000000000000e+00
1.293000000000000000e+03 0.000000000000000000e+00
1.294000000000000000e+03 0.000000000000000000e+00
1.295000000000000000e+03 0.000000000000000000e+00
1.296000000000000000e+03 0.000000000000000000e+00
1.297000000000000000e+03 0.000000000000000000e+00
1.298000000000000000e+03 0.000000000000000000e+00
1.299000000000000000e+03 0.000000000000000000e+00
1.300000000000000000e+03 0.000000000000000000e+00
1.301000000000000000e+03 0.000000000000000000e+00
1.302000000000000000e+03 0.000000000000000000e+00
1.303000000000000000e+03 0.000000000000000000e+00
1.304000000000000000e+03 0.000000000000000000e+00
1.305000000000000000e+03 0.000000000000000000e+00
1.306000000000000000e+03 0.000000000000000000e+00
1.307000000000000000e+03 0.000000000000000000e+00
1.308000000000000000e+03 0.000000000000000000e+00
1.309000000000000000e+03 0.000000000000000000e+00
1.310000000000000000e+03 0.000000000000000000e+00
1.311000000000000000e+03 0.000000000000000000e+00
1.312000000000000000e+03 0.000000000000000000e+00
1.313000000000000000e+03 0.000000000000000000e+00
1.314000000000000000e+03 0.000000000000000000e+00
1.315000000000000000e+03 0.000000000000000000e+00
1.316000000000000000e+03 0.000000000000000000e+00
1.317000000000000000e+03 0.000000000000000000e+00
1.318000000000000000e+03 0.000000000000000000e+00
1.319000000000000000e+03 0.000000000000000000e+00
1.320000000000000000e+03 0.000000000000000000e+00
1.321000000000000000e+03 0.000000000000000000e+00
1.322000000000000000e+03 0.000000000000000000e+00
1.323000000000000000e+03 0.000000000000000000e+00
1.324000000000000000e+03 0.000000000000000000e+00
1.325000000000000000e+03 0.000000000000000000e+00
1.326000000000000000e+03 0.000000000000000000e+00
1.327000000000000000e+03 0.000000000000000000e+00
1.328000000000000000e+03 0.000000000000000000e+00
1.329000000000000000e+03 0.000000000000000000e+00
1.330000000000000000e+03 0.000000000000000000e+00
1.331000000000000000e+03 0.000000000000000000e+00
1.332000000000000000e+03 0.000000000000000000e+00
1.333000000000000000e+03 0.000000000000000000e+00
1.334000000000000000e+03 0.000000000000000000e+00
1.335000000000000000e+03 0.000000000000000000e+00
1.336000000000000000e+03 0.000000000000000000e+00
1.337000000000000000e+03 0.000000000000000000e+00
1.338000000000000000e+03 0.000000000000000000e+00
1.339000000000000000e+03 0.000000000000000000e+00
1.340000000000000000e+03 0.000000000000000000e+00
1.341000000000000000e+03 0.000000000000000000e+00
1.342000000000000000e+03 0.000000000000000000e+00
1.343000000000000000e+03 0.000000000000000000e+00
1.344000000000000000e+03 0.000000000000000000e+00
1.345000000000000000e+03 0.000000000000000000e+00
1.346000000000000000e+03 0.000000000000000000e+00
1.347000000000000000e+03 0.000000000000000000e+00
1.348000000000000000e+03 0.000000000000000000e+00
1.349000000000000000e+03 0.000000000000000000e+00
1.350000000000000000e+03 0.000000000000000000e+00
1.351000000000000000e+03 0.000000000000000000e+00
1.352000000000000000e+03 0.000000000000000000e+00
1.353000000000000000e+03 0.000000000000000000e+00
1.354000000000000000e+03 0.000000000000000000e+00
1.355000000000000000e+03 0.000000000000000000e+00
1.356000000000000000e+03 0.000000000000000000e+00
1.357000000000000000e+03 0.000000000000000000e+00
1.358000000000000000e+03 0.000000000000000000e+00
1.359000000000000000e+03 0.000000000000000000e+00
1.360000000000000000e+03 0.000000000000000000e+00
1.361000000000000000e+03 0.000000000000000000e+00
1.362000000000000000e+03 0.000000000000000000e+00
1.363000000000000000e+03 0.000000000000000000e+00
1.364000000000000000e+03 0.000000000000000000e+00
1.365000000000000000e+03 0.000000000000000000e+00
1.366000000000000000e+03 0.000000000000000000e+00
1.367000000000000000e+03 0.000000000000000000e+00
1.368000000000000000e+03 0.000000000000000000e+00
1.369000000000000000e+03 0.000000000000000000e+00
1.370000000000000000e+03 0.000000000000000000e+00
1.371000000000000000e+03 0.000000000000000000e+00
1.372000000000000000e+03 0.000000000000000000e+00
1.373000000000000000e+03 0.000000000000000000e+00
1.374000000000000000e+03 0.000000000000000000e+00
1.375000000000000000e+03 0.000000000000000000e+00
1.376000000000000000e+03 0.000000000000000000e+00
1.377000000000000000e+03 0.000000000000000000e+00
1.378000000000000000e+03 0.000000000000000000e+00
1.379000000000000000e+03 0.000000000000000000e+00
1.380000000000000000e+03 0.000000000000000000e+00
1.381000000000000000e+03 0.000000000000000000e+00
1.382000000000000000e+03 0.000000000000000000e+00
1.383000000000000000e+03 0.000000000000000000e+00
1.384000000000000000e+03 0.000000000000000000e+00
1.385000000000000000e+03 0.000000000000000000e+00
1.386000000000000000e+03 0.000000000000000000e+00
1.387000000000000000e+03 0.000000000000000000e+00
1.388000000000000000e+03 0.000000000000000000e+00
1.389000000000000000e+03 0.000000000000000000e+00
1.390000000000000000e+03 0.000000000000000000e+00
1.391000000000000000e+03 0.000000000000000000e+00
1.392000000000000000e+03 0.000000000000000000e+00
1.393000000000000000e+03 0.000000000000000000e+00
1.394000000000000000e+03 0.000000000000000000e+00
1.395000000000000000e+03 0.000000000000000000e+00
1.396000000000000000e+03 0.000000000000000000e+00
1.397000000000000000e+03 0.000000000000000000e+00
1.398000000000000000e+03 0.000000000000000000e+00
1.399000000000000000e+03 0.000000000000000000e+00
1.400000000000000000e+03 0.000000000000000000e+00
1.401000000000000000e+03 0.000000000000000000e+00
1.402000000000000000e+03 0.000000000000000000e+00
1.403000000000000000e+03 0.000000000000000000e+00
1.404000000000000000e+03 0.000000000000000000e+00
1.405000000000000000e+03 0.000000000000000000e+00
1.406000000000000000e+03 0.000000000000000000e+00
1.407000000000000000e+03 0.000000000000000000e+00
1.408000000000000000e+03 0.000000000000000000e+00
1.409000000000000000e+03 0.000000000000000000e+00
1.410000000000000000e+03 0.000000000000000000e+00
1.411000000000000000e+03 0.000000000000000000e+00
1.412000000000000000e+03 0.000000000000000000e+00
1.413000000000000000e+03 0.000000000000000000e+00
1.414000000000000000e+03 0.000000000000000000e+00
1.415000000000000000e+03 0.000000000000000000e+00
1.416000000000000000e+03 0.000000000000000000e+00
1.417000000000000000e+03 0.000000000000000000e+00
1.418000000000000000e+03 0.000000000000000000e+00
1.419000000000000000e+03 0.000000000000000000e+00
1.420000000000000000e+03 0.000000000000000000e+00
1.421000000000000000e+03 0.000000000000000000e+00
1.422000000000000000e+03 0.000000000000000000e+00
1.423000000000000000e+03 0.000000000000000000e+00
1.424000000000000000e+03 0.000000000000000000e+00
1.425000000000000000e+03 0.000000000000000000e+00
1.426000000000000000e+03 0.000000000000000000e+00
1.427000000000000000e+03 0.000000000000000000e+00
1.428000000000000000e+03 0.000000000000000000e+00
1.429000000000000000e+03 0.000000000000000000e+00
1.430000000000000000e+03 0.000000000000000000e+00
1.431000000000000000e+03 0.000000000000000000e+00
1.432000000000000000e+03 0.000000000000000000e+00
1.433000000000000000e+03 0.000000000000000000e+00
1.434000000000000000e+03 0.000000000000000000e+00
1.435000000000000000e+03 0.000000000000000000e+00
1.436000000000000000e+03 0.000000000000000000e+00
1.437000000000000000e+03 0.000000000000000000e+00
1.438000000000000000e+03 0.000000000000000000e+00
1.439000000000000000e+03 0.000000000000000000e+00
1.440000000000000000e+03 0.000000000000000000e+00
1.441000000000000000e+03 0.000000000000000000e+00
1.442000000000000000e+03 0.000000000000000000e+00
1.443000000000000000e+03 0.000000000000000000e+00
1.444000000000000000e+03 0.000000000000000000e+00
1.445000000000000000e+03 0.000000000000000000e+00
1.446000000000000000e+03 0.000000000000000000e+00
1.447000000000000000e+03 0.000000000000000000e+00
1.448000000000000000e+03 0.000000000000000000e+00
1.449000000000000000e+03 0.000000000000000000e+00
1.450000000000000000e+03 0.000000000000000000e+00
1.451000000000000000e+03 0.000000000000000000e+00
1.452000000000000000e+03 0.000000000000000000e+00
1.453000000000000000e+03 0.000000000000000000e+00
1.454000000000000000e+03 0.000000000000000000e+00
1.455000000000000000e+03 0.000000000000000000e+00
1.456000000000000000e+03 0.000000000000000000e+00
1.457000000000000000e+03 0.000000000000000000e+00
1.458000000000000000e+03 0.000000000000000000e+00
1.459000000000000000e+03 0.000000000000000000e+00
1.460000000000000000e+03 0.000000000000000000e+00
1.461000000000000000e+03 0.000000000000000000e+00
1.462000000000000000e+03 0.000000000000000000e+00
1.463000000000000000e+03 0.000000000000000000e+00
1.464000000000000000e+03 0.000000000000000000e+00
1.465000000000000000e+03 0.000000000000000000e+00
1.466000000000000000e+03 0.000000000000000000e+00
1.467000000000000000e+03 0.000000000000000000e+00
1.468000000000000000e+03 0.000000000000000000e+00
1.469000000000000000e+03 0.000000000000000000e+00
1.470000000000000000e+03 0.000000000000000000e+00
1.471000000000000000e+03 0.000000000000000000e+00
1.472000000000000000e+03 0.000000000000000000e+00
1.473000000000000000e+03 0.000000000000000000e+00
1.474000000000000000e+03 0.000000000000000000e+00
1.475000000000000000e+03 0.000000000000000000e+00
1.476000000000000000e+03 0.000000000000000000e+00
1.477000000000000000e+03 0.000000000000000000e+00
1.478000000000000000e+03 0.000000000000000000e+00
1.479000000000000000e+03 0.000000000000000000e+00
1.480000000000000000e+03 0.000000000000000000e+00
1.481000000000000000e+03 0.000000000000000000e+00
1.482000000000000000e+03 0.000000000000000000e+00
1.483000000000000000e+03 0.000000000000000000e+00
1.484000000000000000e+03 0.000000000000000000e+00
1.485000000000000000e+03 0.000000000000000000e+00
1.486000000000000000e+03 0.000000000000000000e+00
1.487000000000000000e+03 0.000000000000000000e+00
1.488000000000000000e+03 0.000000000000000000e+00
1.489000000000000000e+03 0.000000000000000000e+00
1.490000000000000000e+03 0.000000000000000000e+00
1.491000000000000000e+03 0.000000000000000000e+00
1.492000000000000000e+03 0.000000000000000000e+00
1.493000000000000000e+03 0.000000000000000000e+00
1.494000000000000000e+03 0.000000000000000000e+00
1.495000000000000000e+03 0.000000000000000000e+00
1.496000000000000000e+03 0.000000000000000000e+00
1.497000000000000000e+03 0.000000000000000000e+00
1.498000000000000000e+03 0.000000000000000000e+00
1.499000000000000000e+03 0.000000000000000000e+00
1.500000000000000000e+03 0.000000000000000000e+00
