1.010000000000000000e+02 0.000000000000000000e+00
1.020000000000000000e+02 0.000000000000000000e+00
1.030000000000000000e+02 0.000000000000000000e+00
1.040000000000000000e+02 0.000000000000000000e+00
1.050000000000000000e+02 0.000000000000000000e+00
1.060000000000000000e+02 0.000000000000000000e+00
1.070000000000000000e+02 0.000000000000000000e+00
1.080000000000000000e+02 0.000000000000000000e+00
1.090000000000000000e+02 0.000000000000000000e+00
1.100000000000000000e+02 0.000000000000000000e+00
1.110000000000000000e+02 0.000000000000000000e+00
1.120000000000000000e+02 0.000000000000000000e+00
1.130000000000000000e+02 0.000000000000000000e+00
1.140000000000000000e+02 0.000000000000000000e+00
1.150000000000000000e+02 0.000000000000000000e+00
1.160000000000000000e+02 0.000000000000000000e+00
1.170000000000000000e+02 0.000000000000000000e+00
1.180000000000000000e+02 0.000000000000000000e+00
1.190000000000000000e+02 0.000000000000000000e+00
1.200000000000000000e+02 0.000000000000000000e+00
1.210000000000000000e+02 0.000000000000000000e+00
1.220000000000000000e+02 0.000000000000000000e+00
1.230000000000000000e+02 0.000000000000000000e+00
1.240000000000000000e+02 0.000000000000000000e+00
1.250000000000000000e+02 0.000000000000000000e+00
1.260000000000000000e+02 0.000000000000000000e+00
1.270000000000000000e+02 0.000000000000000000e+00
1.280000000000000000e+02 0.000000000000000000e+00
1.290000000000000000e+02 0.000000000000000000e+00
1.300000000000000000e+02 0.000000000000000000e+00
1.310000000000000000e+02 0.000000000000000000e+00
1.320000000000000000e+02 0.000000000000000000e+00
1.330000000000000000e+02 0.000000000000000000e+00
1.340000000000000000e+02 0.000000000000000000e+00
1.350000000000000000e+02 0.000000000000000000e+00
1.360000000000000000e+02 0.000000000000000000e+00
1.370000000000000000e+02 0.000000000000000000e+00
1.380000000000000000e+02 0.000000000000000000e+00
1.390000000000000000e+02 0.000000000000000000e+00
1.400000000000000000e+02 0.000000000000000000e+00
1.410000000000000000e+02 0.000000000000000000e+00
1.420000000000000000e+02 0.000000000000000000e+00
1.430000000000000000e+02 0.000000000000000000e+00
1.440000000000000000e+02 0.000000000000000000e+00
1.450000000000000000e+02 0.000000000000000000e+00
1.460000000000000000e+02 0.000000000000000000e+00
1.470000000000000000e+02 0.000000000000000000e+00
1.480000000000000000e+02 0.000000000000000000e+00
1.490000000000000000e+02 0.000000000000000000e+00
1.500000000000000000e+02 0.000000000000000000e+00
1.510000000000000000e+02 2.359385276913532152e+02
1.520000000000000000e+02 1.143480391723694254e+02
1.530000000000000000e+02 5.227223848579140508e+01
1.540000000000000000e+02 2.140879499688832652e+02
1.550000000000000000e+02 7.319222923874767730e+02
1.560000000000000000e+02 1.613112351586814157e+03
1.570000000000000000e+02 2.841555174408960283e+03
1.580000000000000000e+02 4.326463519601729786e+03
1.590000000000000000e+02 5.914608424808118798e+03
1.600000000000000000e+02 7.489488436748250024e+03
1.610000000000000000e+02 8.885425873055382908e+03
1.620000000000000000e+02 9.943359699232520143e+03
1.630000000000000000e+02 1.053203216507673278e+04
1.640000000000000000e+02 1.061153919518771727e+04
1.650000000000000000e+02 1.011422380211574091e+04
1.660000000000000000e+02 9.124147810037333329e+03
1.670000000000000000e+02 7.815685655050832793e+03
1.680000000000000000e+02 6.352183115951034779e+03
1.690000000000000000e+02 4.933891416424714407e+03
1.700000000000000000e+02 3.688623809583075854e+03
1.710000000000000000e+02 2.659059198091688813e+03
1.720000000000000000e+02 1.757076665491503718e+03
1.730000000000000000e+02 1.105959369715822959e+03
1.740000000000000000e+02 7.086993176726815591e+02
1.750000000000000000e+02 5.401207504769806746e+02
1.760000000000000000e+02 5.601354763741953775e+02
1.770000000000000000e+02 6.619328758141476783e+02
1.780000000000000000e+02 7.348414042098715981e+02
1.790000000000000000e+02 8.671098032980700054e+02
1.800000000000000000e+02 1.097971215515451604e+03
1.810000000000000000e+02 1.167956642886769259e+03
1.820000000000000000e+02 1.392817940468783945e+03
1.830000000000000000e+02 1.639391919726197784e+03
1.840000000000000000e+02 1.763873709396390495e+03
1.850000000000000000e+02 1.771109674548848034e+03
1.860000000000000000e+02 1.693812432482886152e+03
1.870000000000000000e+02 1.485753787181082771e+03
1.880000000000000000e+02 1.192809369632857852e+03
1.890000000000000000e+02 9.212609420867070185e+02
1.900000000000000000e+02 6.853037006637611057e+02
1.910000000000000000e+02 5.221326328977387448e+02
1.920000000000000000e+02 5.551561922215303184e+02
1.930000000000000000e+02 8.058662951462320052e+02
1.940000000000000000e+02 1.099383743538688350e+03
1.950000000000000000e+02 1.420358062020329726e+03
1.960000000000000000e+02 1.772531777224641019e+03
1.970000000000000000e+02 2.121396833229617641e+03
1.980000000000000000e+02 2.412785532559099920e+03
1.990000000000000000e+02 2.779168857291020686e+03
2.000000000000000000e+02 3.191080188550093226e+03
2.010000000000000000e+02 3.626493278100370389e+03
2.020000000000000000e+02 4.098583175482262959e+03
2.030000000000000000e+02 4.671504984857918316e+03
2.040000000000000000e+02 5.266054549885917368e+03
2.050000000000000000e+02 5.911519726820158212e+03
2.060000000000000000e+02 6.566905468574977931e+03
2.070000000000000000e+02 7.109444457373994737e+03
2.080000000000000000e+02 7.470179136071355060e+03
2.090000000000000000e+02 7.750264276913502727e+03
2.100000000000000000e+02 7.941049272557559561e+03
2.110000000000000000e+02 7.950784303049159462e+03
2.120000000000000000e+02 7.914948800041484901e+03
2.130000000000000000e+02 7.767988307756118047e+03
2.140000000000000000e+02 7.646818080896079664e+03
2.150000000000000000e+02 7.618766220286247517e+03
2.160000000000000000e+02 7.586898140398175201e+03
2.170000000000000000e+02 7.607274456544285385e+03
2.180000000000000000e+02 7.704686662933000662e+03
2.190000000000000000e+02 7.901755609705517600e+03
2.200000000000000000e+02 8.192290035469823124e+03
2.210000000000000000e+02 8.496037282928853529e+03
2.220000000000000000e+02 8.935143726462047198e+03
2.230000000000000000e+02 9.406329685334989335e+03
2.240000000000000000e+02 9.826213771001872374e+03
2.250000000000000000e+02 1.024015541381456387e+04
2.260000000000000000e+02 1.069820534951254740e+04
2.270000000000000000e+02 1.118075495540343945e+04
2.280000000000000000e+02 1.163483182742170175e+04
2.290000000000000000e+02 1.203249265090230620e+04
2.300000000000000000e+02 1.248394358224434836e+04
2.310000000000000000e+02 1.296334791329599466e+04
2.320000000000000000e+02 1.345351012860401715e+04
2.330000000000000000e+02 1.388689264467953035e+04
2.340000000000000000e+02 1.414262470759021198e+04
2.350000000000000000e+02 1.440710089193113345e+04
2.360000000000000000e+02 1.447864252852105346e+04
2.370000000000000000e+02 1.438645475943591737e+04
2.380000000000000000e+02 1.427058996888612273e+04
2.390000000000000000e+02 1.422535756689483424e+04
2.400000000000000000e+02 1.432948087948558168e+04
2.410000000000000000e+02 1.468591964737605849e+04
2.420000000000000000e+02 1.532361849408837043e+04
2.430000000000000000e+02 1.617348716863720983e+04
2.440000000000000000e+02 1.729028105372328719e+04
2.450000000000000000e+02 1.872242475005183587e+04
2.460000000000000000e+02 2.032482529765610161e+04
2.470000000000000000e+02 2.192321425015557543e+04
2.480000000000000000e+02 2.360097939224226866e+04
2.490000000000000000e+02 2.532841654428539550e+04
2.500000000000000000e+02 2.683286963493052826e+04
2.510000000000000000e+02 2.801776249688926691e+04
2.520000000000000000e+02 2.899506298693217104e+04
2.530000000000000000e+02 2.956711807923667220e+04
2.540000000000000000e+02 2.995893060763168614e+04
2.550000000000000000e+02 3.003389147687201694e+04
2.560000000000000000e+02 2.964192976975730562e+04
2.570000000000000000e+02 2.904002196432273558e+04
2.580000000000000000e+02 2.796946468782412194e+04
2.590000000000000000e+02 2.651410701306785995e+04
2.600000000000000000e+02 2.477989135034229912e+04
2.610000000000000000e+02 2.281097005600498960e+04
2.620000000000000000e+02 2.051714257415476459e+04
2.630000000000000000e+02 1.808534096245596447e+04
2.640000000000000000e+02 1.565727894835095685e+04
2.650000000000000000e+02 1.334451987554449624e+04
2.660000000000000000e+02 1.125017090004148486e+04
2.670000000000000000e+02 9.263909227338703204e+03
2.680000000000000000e+02 7.433296491806668200e+03
2.690000000000000000e+02 5.863494705723753214e+03
2.700000000000000000e+02 4.591660332296178240e+03
2.710000000000000000e+02 3.374599195395129300e+03
2.720000000000000000e+02 2.425184741186236351e+03
2.730000000000000000e+02 1.626303991080710603e+03
2.740000000000000000e+02 8.883751742999215821e+02
2.750000000000000000e+02 2.977385433015382432e+02
2.760000000000000000e+02 1.804277779734414651e+02
2.770000000000000000e+02 5.426709603609131136e+02
2.780000000000000000e+02 7.691181451151209103e+02
2.790000000000000000e+02 8.603751555693829687e+02
2.800000000000000000e+02 9.359206766231070560e+02
2.810000000000000000e+02 8.961586648620614142e+02
2.820000000000000000e+02 7.345848594067624617e+02
2.830000000000000000e+02 4.945936561294354306e+02
2.840000000000000000e+02 2.238017875544452409e+02
2.850000000000000000e+02 1.377222861211395184e+02
2.860000000000000000e+02 5.068539108483723794e+02
2.870000000000000000e+02 9.210761532462242940e+02
2.880000000000000000e+02 1.411915041692603154e+03
2.890000000000000000e+02 1.917969300560054990e+03
2.900000000000000000e+02 2.298155546567093552e+03
2.910000000000000000e+02 2.474939850238542931e+03
2.920000000000000000e+02 2.454514429489835493e+03
2.930000000000000000e+02 2.273166989421287326e+03
2.940000000000000000e+02 1.949803957270283263e+03
2.950000000000000000e+02 1.662458372874330735e+03
2.960000000000000000e+02 1.491986299522921172e+03
2.970000000000000000e+02 1.546393018668322611e+03
2.980000000000000000e+02 1.940974432393193410e+03
2.990000000000000000e+02 2.664268164696120493e+03
3.000000000000000000e+02 3.641172414644258424e+03
3.010000000000000000e+02 4.765261179593537236e+03
3.020000000000000000e+02 5.976541629744875536e+03
3.030000000000000000e+02 7.234850379381873609e+03
3.040000000000000000e+02 8.414897300497741526e+03
3.050000000000000000e+02 9.371116921178192570e+03
3.060000000000000000e+02 1.012322108898569422e+04
3.070000000000000000e+02 1.073335565028001110e+04
3.080000000000000000e+02 1.120450903961834774e+04
3.090000000000000000e+02 1.162915577353795561e+04
3.100000000000000000e+02 1.195700491599252746e+04
3.110000000000000000e+02 1.229760995644056311e+04
3.120000000000000000e+02 1.280667963907902958e+04
3.130000000000000000e+02 1.342986313355454513e+04
3.140000000000000000e+02 1.420241488695290354e+04
3.150000000000000000e+02 1.509015108276289357e+04
3.160000000000000000e+02 1.593394381584404437e+04
3.170000000000000000e+02 1.651256915992532231e+04
3.180000000000000000e+02 1.683956905206388183e+04
3.190000000000000000e+02 1.675412231487243116e+04
3.200000000000000000e+02 1.632009902302426599e+04
3.210000000000000000e+02 1.567238649450321645e+04
3.220000000000000000e+02 1.492442170711469225e+04
3.230000000000000000e+02 1.417971278365483522e+04
3.240000000000000000e+02 1.353027633478531061e+04
3.250000000000000000e+02 1.315979426260111541e+04
3.260000000000000000e+02 1.314369233976353644e+04
3.270000000000000000e+02 1.329043111387679164e+04
3.280000000000000000e+02 1.364412246836755003e+04
3.290000000000000000e+02 1.413491940261355012e+04
3.300000000000000000e+02 1.471049766023648044e+04
3.310000000000000000e+02 1.534482724538476577e+04
3.320000000000000000e+02 1.600411999170295530e+04
3.330000000000000000e+02 1.660337953961010862e+04
3.340000000000000000e+02 1.700354886745488329e+04
3.350000000000000000e+02 1.714686966811864841e+04
3.360000000000000000e+02 1.707595667357942875e+04
3.370000000000000000e+02 1.680901861232109150e+04
3.380000000000000000e+02 1.632727845675171193e+04
3.390000000000000000e+02 1.572141083367896681e+04
3.400000000000000000e+02 1.507059344949179831e+04
3.410000000000000000e+02 1.438691279402612963e+04
3.420000000000000000e+02 1.366610267938613106e+04
3.430000000000000000e+02 1.301661975108897241e+04
3.440000000000000000e+02 1.247592401161583803e+04
3.450000000000000000e+02 1.204060846951473286e+04
3.460000000000000000e+02 1.167540813109313967e+04
3.470000000000000000e+02 1.153572552582451681e+04
3.480000000000000000e+02 1.145222788425637918e+04
3.490000000000000000e+02 1.135940277743207116e+04
3.500000000000000000e+02 1.129571042107446556e+04
3.510000000000000000e+02 1.133426115743621631e+04
3.520000000000000000e+02 1.122061890479153953e+04
3.530000000000000000e+02 1.094358386641776087e+04
3.540000000000000000e+02 1.049478117403028227e+04
3.550000000000000000e+02 9.868632578303257105e+03
3.560000000000000000e+02 9.159104940261360753e+03
3.570000000000000000e+02 8.526773772868691594e+03
3.580000000000000000e+02 7.947798678697360629e+03
3.590000000000000000e+02 7.431996139153876356e+03
3.600000000000000000e+02 7.003143272764976246e+03
3.610000000000000000e+02 6.549598913503416952e+03
3.620000000000000000e+02 6.278802755703026378e+03
3.630000000000000000e+02 6.029223718523136085e+03
3.640000000000000000e+02 5.736735621032974450e+03
3.650000000000000000e+02 5.490280923060969144e+03
3.660000000000000000e+02 5.302382247666462717e+03
3.670000000000000000e+02 5.038578839452402462e+03
3.680000000000000000e+02 4.766824070095398383e+03
3.690000000000000000e+02 4.522549485376479424e+03
3.700000000000000000e+02 4.258302056004982660e+03
3.710000000000000000e+02 3.993977770841973324e+03
3.720000000000000000e+02 3.715972829910806922e+03
3.730000000000000000e+02 3.414536682431032659e+03
3.740000000000000000e+02 3.097361566894838234e+03
3.750000000000000000e+02 2.796923658369629720e+03
3.760000000000000000e+02 2.468374190416925103e+03
3.770000000000000000e+02 2.158681280647168933e+03
3.780000000000000000e+02 1.839067163658985692e+03
3.790000000000000000e+02 1.494374662103293986e+03
3.800000000000000000e+02 1.174611497614600694e+03
3.810000000000000000e+02 9.147029548433871469e+02
3.820000000000000000e+02 6.602520807716186937e+02
3.830000000000000000e+02 4.847122388923442031e+02
3.840000000000000000e+02 4.155773739265727045e+02
3.850000000000000000e+02 3.526337708774128714e+02
3.860000000000000000e+02 3.212929510161761755e+02
3.870000000000000000e+02 3.593329660029031061e+02
3.880000000000000000e+02 4.110117511512129909e+02
3.890000000000000000e+02 4.277274351928658689e+02
3.900000000000000000e+02 4.245975466708152908e+02
3.910000000000000000e+02 3.817619120514422661e+02
3.920000000000000000e+02 2.912010582745753027e+02
3.930000000000000000e+02 1.656879861232103508e+02
3.940000000000000000e+02 2.616468752167617851e+01
3.950000000000000000e+02 1.116787685338048135e+02
3.960000000000000000e+02 2.417491118440173636e+02
3.970000000000000000e+02 3.484860780958314876e+02
3.980000000000000000e+02 4.230737496474507111e+02
3.990000000000000000e+02 4.625221709603823115e+02
4.000000000000000000e+02 4.742369936320260422e+02
4.010000000000000000e+02 4.268405401783876982e+02
4.020000000000000000e+02 3.523395436838842443e+02
4.030000000000000000e+02 2.622598248496138922e+02
4.040000000000000000e+02 1.511274789047932359e+02
4.050000000000000000e+02 3.889729043144527765e+01
4.060000000000000000e+02 1.747573206596098601e+02
4.070000000000000000e+02 3.729930635345356222e+02
4.080000000000000000e+02 6.133607329184792434e+02
4.090000000000000000e+02 8.925315004978178877e+02
4.100000000000000000e+02 1.178190009334164415e+03
4.110000000000000000e+02 1.483062798382078199e+03
4.120000000000000000e+02 1.795504161999583175e+03
4.130000000000000000e+02 2.160885814353874139e+03
4.140000000000000000e+02 2.601857833851901887e+03
4.150000000000000000e+02 3.074135082123603752e+03
4.160000000000000000e+02 3.613475957685140202e+03
4.170000000000000000e+02 4.172535560257218094e+03
4.180000000000000000e+02 4.774790234342595795e+03
4.190000000000000000e+02 5.439511031321284463e+03
4.200000000000000000e+02 6.126625324828891280e+03
4.210000000000000000e+02 6.776268544587308497e+03
4.220000000000000000e+02 7.383031012445540910e+03
4.230000000000000000e+02 7.928369104957465424e+03
4.240000000000000000e+02 8.345236611364576675e+03
4.250000000000000000e+02 8.539124191039203652e+03
4.260000000000000000e+02 8.608027705455298928e+03
4.270000000000000000e+02 8.524543997510889312e+03
4.280000000000000000e+02 8.346079088570835665e+03
4.290000000000000000e+02 8.122025460485378062e+03
4.300000000000000000e+02 7.883645895457370898e+03
4.310000000000000000e+02 7.714836461522504578e+03
4.320000000000000000e+02 7.514357709396390419e+03
4.330000000000000000e+02 7.360152059946067311e+03
4.340000000000000000e+02 7.276914364032357298e+03
4.350000000000000000e+02 7.204592811035054183e+03
4.360000000000000000e+02 7.227777323517211698e+03
4.370000000000000000e+02 7.240415729724124503e+03
4.380000000000000000e+02 7.297624303671439520e+03
4.390000000000000000e+02 7.406776221692242871e+03
4.400000000000000000e+02 7.510371936942539833e+03
4.410000000000000000e+02 7.647108952499477709e+03
4.420000000000000000e+02 7.779858697987968299e+03
4.430000000000000000e+02 7.894551232731797427e+03
4.440000000000000000e+02 8.067807790085038505e+03
4.450000000000000000e+02 8.359334546981954190e+03
4.460000000000000000e+02 8.648304647376062348e+03
4.470000000000000000e+02 9.003887205973860546e+03
4.480000000000000000e+02 9.427231988799008832e+03
4.490000000000000000e+02 9.913494631611700243e+03
4.500000000000000000e+02 1.049125069695083948e+04
4.510000000000000000e+02 1.121742438913089791e+04
4.520000000000000000e+02 1.198532275046671748e+04
4.530000000000000000e+02 1.277833849616262705e+04
4.540000000000000000e+02 1.361761957062852525e+04
4.550000000000000000e+02 1.452926927400956265e+04
4.560000000000000000e+02 1.554246540024886963e+04
4.570000000000000000e+02 1.667283420037334145e+04
4.580000000000000000e+02 1.790206476457163080e+04
4.590000000000000000e+02 1.931157138116965507e+04
4.600000000000000000e+02 2.090910930927191657e+04
4.610000000000000000e+02 2.258687466708148713e+04
4.620000000000000000e+02 2.441851759435917484e+04
4.630000000000000000e+02 2.634748462559634208e+04
4.640000000000000000e+02 2.831124146650070907e+04
4.650000000000000000e+02 3.018338793031938258e+04
4.660000000000000000e+02 3.178234227753578671e+04
4.670000000000000000e+02 3.296146976560879557e+04
4.680000000000000000e+02 3.353166909354905511e+04
4.690000000000000000e+02 3.327214635760214878e+04
4.700000000000000000e+02 3.205640110143122365e+04
4.710000000000000000e+02 2.988902487865590592e+04
4.720000000000000000e+02 2.707932873885079243e+04
4.730000000000000000e+02 2.385266623729511048e+04
4.740000000000000000e+02 2.056079650694883094e+04
4.750000000000000000e+02 1.740561645301812678e+04
4.760000000000000000e+02 1.450480160962449008e+04
4.770000000000000000e+02 1.199477217174862744e+04
4.780000000000000000e+02 9.862271127566929863e+03
4.790000000000000000e+02 8.101808591785973476e+03
4.800000000000000000e+02 6.667984709396394464e+03
4.810000000000000000e+02 5.498510399087334918e+03
4.820000000000000000e+02 4.541797459145591347e+03
4.830000000000000000e+02 3.763865039618332503e+03
4.840000000000000000e+02 3.113856202862476493e+03
4.850000000000000000e+02 2.609690244919118868e+03
4.860000000000000000e+02 2.223014805019699907e+03
4.870000000000000000e+02 1.885182035677242766e+03
4.880000000000000000e+02 1.632975008710074690e+03
4.890000000000000000e+02 1.438570162414432616e+03
4.900000000000000000e+02 1.265653240613977459e+03
4.910000000000000000e+02 1.116373651804232395e+03
4.920000000000000000e+02 9.959222859987586389e+02
4.930000000000000000e+02 8.594437499688827984e+02
4.940000000000000000e+02 7.392818499688871725e+02
4.950000000000000000e+02 6.413254801700907137e+02
4.960000000000000000e+02 5.432570934868308541e+02
4.970000000000000000e+02 4.332742530802751730e+02
4.980000000000000000e+02 3.277834553204736494e+02
4.990000000000000000e+02 2.305396487865600079e+02
5.000000000000000000e+02 1.520079553412169560e+02
5.010000000000000000e+02 3.804999000829688072e+01
5.020000000000000000e+02 1.082551481953947672e+02
5.030000000000000000e+02 1.790832981539092543e+02
5.040000000000000000e+02 2.847404391620005413e+02
5.050000000000000000e+02 3.410129988799005787e+02
5.060000000000000000e+02 3.816167695706284348e+02
5.070000000000000000e+02 3.918178240821404756e+02
5.080000000000000000e+02 3.468809798174646630e+02
5.090000000000000000e+02 2.924970001244294053e+02
5.100000000000000000e+02 1.716785938394488085e+02
5.110000000000000000e+02 4.540638584069441208e+01
5.120000000000000000e+02 7.387777843218903229e+01
5.130000000000000000e+02 2.305549895457382661e+02
5.140000000000000000e+02 4.595898618830401574e+02
5.150000000000000000e+02 7.211956168637282190e+02
5.160000000000000000e+02 9.641485068450588187e+02
5.170000000000000000e+02 1.182221732061376770e+03
5.180000000000000000e+02 1.393261582451763843e+03
5.190000000000000000e+02 1.611280526031953286e+03
5.200000000000000000e+02 1.777965586271249549e+03
5.210000000000000000e+02 2.032032497822015785e+03
5.220000000000000000e+02 2.336189271105565240e+03
5.230000000000000000e+02 2.637659301804599181e+03
5.240000000000000000e+02 2.929662784277113133e+03
5.250000000000000000e+02 3.279807161169873325e+03
5.260000000000000000e+02 3.620790314315348951e+03
5.270000000000000000e+02 3.999149689276072877e+03
5.280000000000000000e+02 4.453262683260732956e+03
5.290000000000000000e+02 4.970935114499065094e+03
5.300000000000000000e+02 5.511069501763116932e+03
5.310000000000000000e+02 6.059298434557156725e+03
5.320000000000000000e+02 6.661517014934671352e+03
5.330000000000000000e+02 7.321483572495344561e+03
5.340000000000000000e+02 8.019724512756718468e+03
5.350000000000000000e+02 8.732402733250384699e+03
5.360000000000000000e+02 9.447617200331829736e+03
5.370000000000000000e+02 1.015325669570630816e+04
5.380000000000000000e+02 1.079778290603610731e+04
5.390000000000000000e+02 1.139247816258815328e+04
5.400000000000000000e+02 1.194898335200164183e+04
5.410000000000000000e+02 1.244934678697366689e+04
5.420000000000000000e+02 1.284454687266695328e+04
5.430000000000000000e+02 1.315122059738643111e+04
5.440000000000000000e+02 1.335698577266127177e+04
5.450000000000000000e+02 1.350195849232683577e+04
5.460000000000000000e+02 1.360429660236465497e+04
5.470000000000000000e+02 1.361413833229620468e+04
5.480000000000000000e+02 1.355279064716863286e+04
5.490000000000000000e+02 1.336749171541173564e+04
5.500000000000000000e+02 1.310830214063471976e+04
5.510000000000000000e+02 1.277423826384566382e+04
5.520000000000000000e+02 1.232260974486620216e+04
5.530000000000000000e+02 1.176848329392241794e+04
5.540000000000000000e+02 1.114053209707528003e+04
5.550000000000000000e+02 1.035680278572909083e+04
5.560000000000000000e+02 9.479030545115118002e+03
5.570000000000000000e+02 8.602119478531438290e+03
5.580000000000000000e+02 7.743615311138761172e+03
5.590000000000000000e+02 6.965440402198715674e+03
5.600000000000000000e+02 6.131682268409038443e+03
5.610000000000000000e+02 5.334539023024265589e+03
5.620000000000000000e+02 4.621405866652843542e+03
5.630000000000000000e+02 3.952655386434342290e+03
5.640000000000000000e+02 3.194712511512134370e+03
5.650000000000000000e+02 2.482371603484032676e+03
5.660000000000000000e+02 1.770718182949591437e+03
5.670000000000000000e+02 1.074449335863931310e+03
5.680000000000000000e+02 4.349498052882623256e+02
5.690000000000000000e+02 1.308141394503221591e+02
5.700000000000000000e+02 4.952919375233328196e+02
5.710000000000000000e+02 7.619229860223975948e+02
5.720000000000000000e+02 8.548550946276704963e+02
5.730000000000000000e+02 7.917644821821211281e+02
5.740000000000000000e+02 6.027017220033175136e+02
5.750000000000000000e+02 2.668134086558810054e+02
5.760000000000000000e+02 1.822500505911624202e+02
5.770000000000000000e+02 7.837490298485789708e+02
5.780000000000000000e+02 1.471570334785307068e+03
5.790000000000000000e+02 2.219901236465478632e+03
5.800000000000000000e+02 3.059340341630363127e+03
5.810000000000000000e+02 4.029796993777210446e+03
5.820000000000000000e+02 5.071727789462741384e+03
5.830000000000000000e+02 6.210899047915360825e+03
5.840000000000000000e+02 7.433312269446150822e+03
5.850000000000000000e+02 8.743323323791708390e+03
5.860000000000000000e+02 1.015077396847125419e+04
5.870000000000000000e+02 1.164554855009330822e+04
5.880000000000000000e+02 1.329958569058476860e+04
5.890000000000000000e+02 1.501329522713128790e+04
5.900000000000000000e+02 1.684337062850029542e+04
5.910000000000000000e+02 1.878339731231848418e+04
5.920000000000000000e+02 2.068170789670195882e+04
5.930000000000000000e+02 2.279387082762915088e+04
5.940000000000000000e+02 2.495994762289978098e+04
5.950000000000000000e+02 2.718681331881347069e+04
5.960000000000000000e+02 2.950623613150807068e+04
5.970000000000000000e+02 3.193045719560252473e+04
5.980000000000000000e+02 3.443254724953322147e+04
5.990000000000000000e+02 3.697498909769747115e+04
6.000000000000000000e+02 3.934013991080683627e+04
6.010000000000000000e+02 4.164914212404057616e+04
6.020000000000000000e+02 4.393394929075065011e+04
6.030000000000000000e+02 4.611254684505286423e+04
6.040000000000000000e+02 4.812896834266747464e+04
6.050000000000000000e+02 4.988200973454996711e+04
6.060000000000000000e+02 5.137469797552376258e+04
6.070000000000000000e+02 5.260389483509646379e+04
6.080000000000000000e+02 5.353931980091245350e+04
6.090000000000000000e+02 5.414451304293716385e+04
6.100000000000000000e+02 5.441576644472101179e+04
6.110000000000000000e+02 5.452603915802571282e+04
6.120000000000000000e+02 5.417277983820786176e+04
6.130000000000000000e+02 5.356675292263018491e+04
6.140000000000000000e+02 5.278553072998759308e+04
6.150000000000000000e+02 5.161740360713550763e+04
6.160000000000000000e+02 5.024436523957690952e+04
6.170000000000000000e+02 4.880875390168018203e+04
6.180000000000000000e+02 4.722915450114087434e+04
6.190000000000000000e+02 4.555242354698199051e+04
6.200000000000000000e+02 4.382504882804396766e+04
6.210000000000000000e+02 4.202377177971374476e+04
6.220000000000000000e+02 4.031799099149553513e+04
6.230000000000000000e+02 3.853111009334158734e+04
6.240000000000000000e+02 3.672735447832396312e+04
6.250000000000000000e+02 3.502490076540133305e+04
6.260000000000000000e+02 3.340610799626626249e+04
6.270000000000000000e+02 3.176231104957470598e+04
6.280000000000000000e+02 3.022048722049360731e+04
6.290000000000000000e+02 2.869537990873269882e+04
6.300000000000000000e+02 2.716583924082147860e+04
6.310000000000000000e+02 2.564578894649515860e+04
6.320000000000000000e+02 2.418680326280857844e+04
6.330000000000000000e+02 2.285334747977601364e+04
6.340000000000000000e+02 2.157855644960599238e+04
6.350000000000000000e+02 2.028150770379589812e+04
6.360000000000000000e+02 1.907450799004356668e+04
6.370000000000000000e+02 1.796251124429696210e+04
6.380000000000000000e+02 1.689808524579960795e+04
6.390000000000000000e+02 1.592514015556936829e+04
6.400000000000000000e+02 1.494934184155948424e+04
6.410000000000000000e+02 1.408671389338308290e+04
6.420000000000000000e+02 1.324664820784066615e+04
6.430000000000000000e+02 1.245806951669774389e+04
6.440000000000000000e+02 1.177375001866829916e+04
6.450000000000000000e+02 1.112284409043764936e+04
6.460000000000000000e+02 1.055384774528107846e+04
6.470000000000000000e+02 1.000605081435388638e+04
6.480000000000000000e+02 9.512384535158667859e+03
6.490000000000000000e+02 9.027740619166153920e+03
6.500000000000000000e+02 8.521784286307065486e+03
6.510000000000000000e+02 8.081019219871401219e+03
6.520000000000000000e+02 7.675743035469825372e+03
6.530000000000000000e+02 7.262162421281889692e+03
6.540000000000000000e+02 6.832978878241025086e+03
6.550000000000000000e+02 6.444696167807505844e+03
6.560000000000000000e+02 6.117201899626710656e+03
6.570000000000000000e+02 5.781427918481637789e+03
6.580000000000000000e+02 5.479411058079234863e+03
6.590000000000000000e+02 5.209873102861882217e+03
6.600000000000000000e+02 4.932385713959755776e+03
6.610000000000000000e+02 4.612215415681393097e+03
6.620000000000000000e+02 4.298893664039816031e+03
6.630000000000000000e+02 4.081030242895662923e+03
6.640000000000000000e+02 3.841069720804812732e+03
6.650000000000000000e+02 3.605425972210699001e+03
6.660000000000000000e+02 3.340681041692593681e+03
6.670000000000000000e+02 3.081538706077578809e+03
6.680000000000000000e+02 2.873143550394025624e+03
6.690000000000000000e+02 2.709742952499480907e+03
6.700000000000000000e+02 2.496964721841941355e+03
6.710000000000000000e+02 2.334807228375854720e+03
6.720000000000000000e+02 2.176961672267165341e+03
6.730000000000000000e+02 2.037489492636384057e+03
6.740000000000000000e+02 1.886427146235220334e+03
6.750000000000000000e+02 1.676341783447418720e+03
6.760000000000000000e+02 1.572224186268410676e+03
6.770000000000000000e+02 1.462743328562539091e+03
6.780000000000000000e+02 1.368047588881975798e+03
6.790000000000000000e+02 1.242286837585566673e+03
6.800000000000000000e+02 1.092864059116366661e+03
6.810000000000000000e+02 9.752572370047728327e+02
6.820000000000000000e+02 8.285546320887817728e+02
6.830000000000000000e+02 7.432915117610457401e+02
6.840000000000000000e+02 6.543263227753582214e+02
6.850000000000000000e+02 5.876141576109509970e+02
6.860000000000000000e+02 5.234565080896094287e+02
6.870000000000000000e+02 4.261251123210939227e+02
6.880000000000000000e+02 3.550093278722537207e+02
6.890000000000000000e+02 2.834411813939028093e+02
6.900000000000000000e+02 2.332643344534339178e+02
6.910000000000000000e+02 2.168438941932807893e+02
6.920000000000000000e+02 2.022809596556737119e+02
6.930000000000000000e+02 1.604923918481657950e+02
6.940000000000000000e+02 1.097706265450029974e+02
6.950000000000000000e+02 6.649540071769439464e+01
6.960000000000000000e+02 6.368797114913954971e+01
6.970000000000000000e+02 2.626562413939070595e+01
6.980000000000000000e+02 1.768343247666444285e+01
6.990000000000000000e+02 3.062203102468353677e+01
7.000000000000000000e+02 3.396276394731360426e+01
7.010000000000000000e+02 1.137327731176107726e+01
7.020000000000000000e+02 4.140727078407010708e+01
7.030000000000000000e+02 5.998159602986927297e+01
7.040000000000000000e+02 6.791780802323215482e+01
7.050000000000000000e+02 1.094439224600728267e+02
7.060000000000000000e+02 1.721081948973228748e+02
7.070000000000000000e+02 1.592917601120107634e+02
7.080000000000000000e+02 1.360205277743216641e+02
7.090000000000000000e+02 1.720583724538455499e+02
7.100000000000000000e+02 1.899539572287913529e+02
7.110000000000000000e+02 1.762357128162590811e+02
7.120000000000000000e+02 1.696685011200996485e+02
7.130000000000000000e+02 1.626324545115124920e+02
7.140000000000000000e+02 1.414340768145998197e+02
7.150000000000000000e+02 1.658294776602366198e+02
7.160000000000000000e+02 1.645442810205350384e+02
7.170000000000000000e+02 1.380140069058477366e+02
7.180000000000000000e+02 1.313789922007885878e+02
7.190000000000000000e+02 1.490358712507779444e+02
7.200000000000000000e+02 1.276805698465380345e+02
7.210000000000000000e+02 9.938978379589171652e+01
7.220000000000000000e+02 9.336121485583915103e+01
7.230000000000000000e+02 9.503104755652395852e+01
7.240000000000000000e+02 6.701823184816781520e+01
7.250000000000000000e+02 9.758148668325997477e+00
7.260000000000000000e+02 2.076992369010540429e+01
7.270000000000000000e+02 3.558438501140846455e+01
7.280000000000000000e+02 1.707857709520907719e+01
7.290000000000000000e+02 2.235352872640529043e+01
7.300000000000000000e+02 2.319095500933422471e+01
7.310000000000000000e+02 2.607263404480375968e+00
7.320000000000000000e+02 1.610067998755433161e+00
7.330000000000000000e+02 9.346688767475704651e+00
7.340000000000000000e+02 1.172892057374037122e+01
7.350000000000000000e+02 1.479879363410042359e+01
7.360000000000000000e+02 7.776571731798219922e+00
7.370000000000000000e+02 3.388775397760613117e+01
7.380000000000000000e+02 9.944148402405919285e+01
7.390000000000000000e+02 4.112309514001084665e+01
7.400000000000000000e+02 1.486761020738247119e+01
7.410000000000000000e+02 1.257381759386017173e+01
7.420000000000000000e+02 5.706940685750224063e+00
7.430000000000000000e+02 7.267416841560290663e+00
7.440000000000000000e+02 2.264839472308643309e+01
7.450000000000000000e+02 2.579554782202860963e+01
7.460000000000000000e+02 2.551407456034837651e+01
7.470000000000000000e+02 1.157705556316096462e+01
7.480000000000000000e+02 2.736672061605512596e+01
7.490000000000000000e+02 5.517349025715561339e+01
7.500000000000000000e+02 7.236433403650721630e+01
7.510000000000000000e+02 7.346355732005744699e+01
7.520000000000000000e+02 5.639309238124948109e+01
7.530000000000000000e+02 9.084738272557638084e+01
7.540000000000000000e+02 1.057342409043768328e+02
7.550000000000000000e+02 1.265287768927597369e+02
7.560000000000000000e+02 1.457598929682639834e+02
7.570000000000000000e+02 1.560579431356289319e+02
7.580000000000000000e+02 1.779921793403855190e+02
7.590000000000000000e+02 1.990821199958512295e+02
7.600000000000000000e+02 2.062318237453339407e+02
7.610000000000000000e+02 1.967249567517111188e+02
7.620000000000000000e+02 2.179638726197887024e+02
7.630000000000000000e+02 2.567044639983419074e+02
7.640000000000000000e+02 2.721503802323169339e+02
7.650000000000000000e+02 2.731503029454471516e+02
7.660000000000000000e+02 2.868671901057875857e+02
7.670000000000000000e+02 2.985507063472309710e+02
7.680000000000000000e+02 2.997017987554449405e+02
7.690000000000000000e+02 3.099279094171339466e+02
7.700000000000000000e+02 3.262199293922424204e+02
7.710000000000000000e+02 3.338939167392657623e+02
7.720000000000000000e+02 3.428547196017423175e+02
7.730000000000000000e+02 3.355121530082988102e+02
7.740000000000000000e+02 3.473094319643227550e+02
7.750000000000000000e+02 3.292847324206600206e+02
7.760000000000000000e+02 3.447611618958712256e+02
7.770000000000000000e+02 3.783534523542833199e+02
7.780000000000000000e+02 3.452670364654636614e+02
7.790000000000000000e+02 3.161102836374951721e+02
7.800000000000000000e+02 3.021350884878656302e+02
7.810000000000000000e+02 3.040976562124041038e+02
7.820000000000000000e+02 2.966610158855248756e+02
7.830000000000000000e+02 2.957051603194355494e+02
7.840000000000000000e+02 2.941132558182955563e+02
7.850000000000000000e+02 2.683264175860640535e+02
7.860000000000000000e+02 2.765325068657953125e+02
7.870000000000000000e+02 2.782195428334370604e+02
7.880000000000000000e+02 2.841807444214017551e+02
7.890000000000000000e+02 2.862451382078407960e+02
7.900000000000000000e+02 2.913024463389334642e+02
7.910000000000000000e+02 3.019679775772662538e+02
7.920000000000000000e+02 2.909020798382077828e+02
7.930000000000000000e+02 3.043258255133788452e+02
7.940000000000000000e+02 3.205691518357190830e+02
7.950000000000000000e+02 3.498194607757731092e+02
7.960000000000000000e+02 3.598371739058285357e+02
7.970000000000000000e+02 3.671744344741747454e+02
7.980000000000000000e+02 3.951356919103915288e+02
7.990000000000000000e+02 4.086089555278993544e+02
8.000000000000000000e+02 4.317236635760210675e+02
8.010000000000000000e+02 4.386303409873468127e+02
8.020000000000000000e+02 4.747803450528913913e+02
8.030000000000000000e+02 5.130640716241434802e+02
8.040000000000000000e+02 5.500241221115933286e+02
8.050000000000000000e+02 6.020383956034818311e+02
8.060000000000000000e+02 6.596849642605264989e+02
8.070000000000000000e+02 6.855521092719346825e+02
8.080000000000000000e+02 7.476314250518452127e+02
8.090000000000000000e+02 8.214620120721848480e+02
8.100000000000000000e+02 9.009653615432489460e+02
8.110000000000000000e+02 9.645934221484868658e+02
8.120000000000000000e+02 1.015942462974488876e+03
8.130000000000000000e+02 1.097037855424187910e+03
8.140000000000000000e+02 1.146446862505182708e+03
8.150000000000000000e+02 1.181404257830324013e+03
8.160000000000000000e+02 1.243523593030495249e+03
8.170000000000000000e+02 1.286774082538364610e+03
8.180000000000000000e+02 1.303683356357601497e+03
8.190000000000000000e+02 1.312336011408421882e+03
8.200000000000000000e+02 1.302453225471894029e+03
8.210000000000000000e+02 1.289907637834474372e+03
8.220000000000000000e+02 1.283499226094171718e+03
8.230000000000000000e+02 1.251502303464011447e+03
8.240000000000000000e+02 1.214442425845260232e+03
8.250000000000000000e+02 1.188285013067828231e+03
8.260000000000000000e+02 1.165886065339140714e+03
8.270000000000000000e+02 1.139951565235427779e+03
8.280000000000000000e+02 1.109032632026549891e+03
8.290000000000000000e+02 1.070910484546772977e+03
8.300000000000000000e+02 1.075545204107032987e+03
8.310000000000000000e+02 1.065930664247199502e+03
8.320000000000000000e+02 1.061282499896285799e+03
8.330000000000000000e+02 1.081588655465671309e+03
8.340000000000000000e+02 1.099235425134800607e+03
8.350000000000000000e+02 1.155883323584316940e+03
8.360000000000000000e+02 1.223877685127564973e+03
8.370000000000000000e+02 1.295785562007464478e+03
8.380000000000000000e+02 1.394401783447417074e+03
8.390000000000000000e+02 1.518519584940882851e+03
8.400000000000000000e+02 1.654361834093738707e+03
8.410000000000000000e+02 1.806571395353663775e+03
8.420000000000000000e+02 1.993976863098945159e+03
8.430000000000000000e+02 2.225417329531323958e+03
8.440000000000000000e+02 2.426932413192292643e+03
8.450000000000000000e+02 2.682929303256593812e+03
8.460000000000000000e+02 2.934198241028841494e+03
8.470000000000000000e+02 3.171178410703183090e+03
8.480000000000000000e+02 3.446812477286876856e+03
8.490000000000000000e+02 3.724652581829487190e+03
8.500000000000000000e+02 4.013019808753361303e+03
8.510000000000000000e+02 4.302044113047091741e+03
8.520000000000000000e+02 4.560628047293090276e+03
8.530000000000000000e+02 4.797855400746730993e+03
8.540000000000000000e+02 4.979952259489730750e+03
8.550000000000000000e+02 5.084468888612322189e+03
8.560000000000000000e+02 5.144536006430202178e+03
8.570000000000000000e+02 5.147768028002488791e+03
8.580000000000000000e+02 5.022950767890473799e+03
8.590000000000000000e+02 4.800561750674129144e+03
8.600000000000000000e+02 4.580975350684359910e+03
8.610000000000000000e+02 4.309189638249316886e+03
8.620000000000000000e+02 3.993698006222771710e+03
8.630000000000000000e+02 3.735715517212770465e+03
8.640000000000000000e+02 3.453510482265084647e+03
8.650000000000000000e+02 3.206601110143121332e+03
8.660000000000000000e+02 2.976374434052257129e+03
8.670000000000000000e+02 2.814402260112012300e+03
8.680000000000000000e+02 2.719806565442853753e+03
8.690000000000000000e+02 2.645935226876812976e+03
8.700000000000000000e+02 2.576822126529765228e+03
8.710000000000000000e+02 2.540395035469819504e+03
8.720000000000000000e+02 2.507712610454261721e+03
8.730000000000000000e+02 2.465794888197469390e+03
8.740000000000000000e+02 2.444794233561502097e+03
8.750000000000000000e+02 2.411056371084836428e+03
8.760000000000000000e+02 2.361113751711262921e+03
8.770000000000000000e+02 2.304113894835096744e+03
8.780000000000000000e+02 2.245158105579755102e+03
8.790000000000000000e+02 2.217701766231072270e+03
8.800000000000000000e+02 2.176310164281269863e+03
8.810000000000000000e+02 2.134839072184193810e+03
8.820000000000000000e+02 2.095404856668741104e+03
8.830000000000000000e+02 2.032326352831363920e+03
8.840000000000000000e+02 1.964124475420037243e+03
8.850000000000000000e+02 1.898494811449906820e+03
8.860000000000000000e+02 1.791370443799255327e+03
8.870000000000000000e+02 1.649410801493466352e+03
8.880000000000000000e+02 1.541508108276292660e+03
8.890000000000000000e+02 1.397259749688927741e+03
8.900000000000000000e+02 1.262181026757934660e+03
8.910000000000000000e+02 1.152422880937566333e+03
8.920000000000000000e+02 1.041805015346330492e+03
8.930000000000000000e+02 9.299554483302229073e+02
8.940000000000000000e+02 8.533898679527080731e+02
8.950000000000000000e+02 8.067282700124433177e+02
8.960000000000000000e+02 7.479637968886130466e+02
8.970000000000000000e+02 7.278104275461522548e+02
8.980000000000000000e+02 7.518728428126933068e+02
8.990000000000000000e+02 7.788911097055161008e+02
9.000000000000000000e+02 7.960982249118436584e+02
9.010000000000000000e+02 8.394229791951869402e+02
9.020000000000000000e+02 9.083041914973038047e+02
9.030000000000000000e+02 9.764205532047303677e+02
9.040000000000000000e+02 1.087782008504460919e+03
9.050000000000000000e+02 1.201857518664450481e+03
9.060000000000000000e+02 1.303889160132755705e+03
9.070000000000000000e+02 1.416821003111391747e+03
9.080000000000000000e+02 1.546495503525503636e+03
9.090000000000000000e+02 1.663283483924492884e+03
9.100000000000000000e+02 1.746494573532458162e+03
9.110000000000000000e+02 1.836326736001656172e+03
9.120000000000000000e+02 1.856035219663970565e+03
9.130000000000000000e+02 1.842457079858951829e+03
9.140000000000000000e+02 1.776846166148103748e+03
9.150000000000000000e+02 1.668498923874716638e+03
9.160000000000000000e+02 1.536151453018049324e+03
9.170000000000000000e+02 1.348658981331672749e+03
9.180000000000000000e+02 1.154300239369424389e+03
9.190000000000000000e+02 9.602010418792774544e+02
9.200000000000000000e+02 7.965654022194523805e+02
9.210000000000000000e+02 6.389990116365858057e+02
9.220000000000000000e+02 4.991368031736122930e+02
9.230000000000000000e+02 3.870382768720130571e+02
9.240000000000000000e+02 2.885684887367720535e+02
9.250000000000000000e+02 2.003517663210253659e+02
9.260000000000000000e+02 1.326187344741781260e+02
9.270000000000000000e+02 7.529919313628111865e+01
9.280000000000000000e+02 2.550312997303834095e+01
9.290000000000000000e+02 4.244024772660822009e+00
9.300000000000000000e+02 2.701471710018607197e+01
9.310000000000000000e+02 5.254788330153429854e+01
9.320000000000000000e+02 7.253620795685542078e+01
9.330000000000000000e+02 8.120029605683467366e+01
9.340000000000000000e+02 8.540453653670684275e+01
9.350000000000000000e+02 9.825062418170529099e+01
9.360000000000000000e+02 1.019849971582659123e+02
9.370000000000000000e+02 1.035080085856492076e+02
9.380000000000000000e+02 1.138145976975737597e+02
9.390000000000000000e+02 1.112899138767881482e+02
9.400000000000000000e+02 9.523763354075774146e+01
9.410000000000000000e+02 1.105625334370455164e+02
9.420000000000000000e+02 8.605904388301100028e+01
9.430000000000000000e+02 6.530816514830959818e+01
9.440000000000000000e+02 7.397763380211543449e+01
9.450000000000000000e+02 5.776350809375557560e+01
9.460000000000000000e+02 3.488821041070325180e+01
9.470000000000000000e+02 1.895032707322148724e+01
9.480000000000000000e+02 5.972903104542595543e+00
9.490000000000000000e+02 2.238019479153721747e+01
9.500000000000000000e+02 2.937923144160972555e+01
9.510000000000000000e+02 4.459834470441841603e+01
9.520000000000000000e+02 8.540074549678621452e+01
9.530000000000000000e+02 1.171245296826391211e+02
9.540000000000000000e+02 1.451087715470764579e+02
9.550000000000000000e+02 1.709956265712514494e+02
9.560000000000000000e+02 1.984738417755660294e+02
9.570000000000000000e+02 2.304281765657406709e+02
9.580000000000000000e+02 2.451946227131305704e+02
9.590000000000000000e+02 2.698995801908321823e+02
9.600000000000000000e+02 2.856602792202409091e+02
9.610000000000000000e+02 3.090023848164277638e+02
9.620000000000000000e+02 3.212291917237087091e+02
9.630000000000000000e+02 3.358662302571552800e+02
9.640000000000000000e+02 3.625003582659201697e+02
9.650000000000000000e+02 3.861859101846090994e+02
9.660000000000000000e+02 4.032604573947315316e+02
9.670000000000000000e+02 4.107399365276915546e+02
9.680000000000000000e+02 4.280875485583904947e+02
9.690000000000000000e+02 4.493117590126534537e+02
9.700000000000000000e+02 4.785454410703176791e+02
9.710000000000000000e+02 4.997886219041692470e+02
9.720000000000000000e+02 5.145245516490358568e+02
9.730000000000000000e+02 5.440342093341632790e+02
9.740000000000000000e+02 5.818369615639908261e+02
9.750000000000000000e+02 5.963421943580171956e+02
9.760000000000000000e+02 6.312625738021158668e+02
9.770000000000000000e+02 6.662168725783030823e+02
9.780000000000000000e+02 6.940593359054138318e+02
9.790000000000000000e+02 7.290571812694462324e+02
9.800000000000000000e+02 7.697327811281622871e+02
9.810000000000000000e+02 8.050756812694463633e+02
9.820000000000000000e+02 8.367664315079856578e+02
9.830000000000000000e+02 8.813214872666939073e+02
9.840000000000000000e+02 9.294209014312383488e+02
9.850000000000000000e+02 9.479291220286246471e+02
9.860000000000000000e+02 9.912248615926998809e+02
9.870000000000000000e+02 1.023401353868491924e+03
9.880000000000000000e+02 1.060469491391826750e+03
9.890000000000000000e+02 1.094257970966403946e+03
9.900000000000000000e+02 1.118480131922837472e+03
9.910000000000000000e+02 1.153257565442853547e+03
9.920000000000000000e+02 1.168723989423475814e+03
9.930000000000000000e+02 1.178289712092926720e+03
9.940000000000000000e+02 1.163427985687616683e+03
9.950000000000000000e+02 1.154764772868699538e+03
9.960000000000000000e+02 1.138048474797759354e+03
9.970000000000000000e+02 1.114068650280024713e+03
9.980000000000000000e+02 1.091061988591578711e+03
9.990000000000000000e+02 1.074988062227753517e+03
1.000000000000000000e+03 1.073766826863193273e+03
1.001000000000000000e+03 1.048818535269708946e+03
1.002000000000000000e+03 1.039791112033195077e+03
1.003000000000000000e+03 1.047185390041494202e+03
1.004000000000000000e+03 1.051736311203319474e+03
1.005000000000000000e+03 1.059419267080744930e+03
1.006000000000000000e+03 1.071338145228216035e+03
1.007000000000000000e+03 1.088504491701243751e+03
1.008000000000000000e+03 1.108445989626556184e+03
1.009000000000000000e+03 1.116864904564315339e+03
1.010000000000000000e+03 1.117602149377593605e+03
1.011000000000000000e+03 1.140556643153526920e+03
1.012000000000000000e+03 1.146522892116182675e+03
1.013000000000000000e+03 1.136454846790890088e+03
1.014000000000000000e+03 1.133391251037344318e+03
1.015000000000000000e+03 1.113034697095434012e+03
1.016000000000000000e+03 1.084077734439834103e+03
1.017000000000000000e+03 1.067588469979296860e+03
1.018000000000000000e+03 1.026464809128630122e+03
1.019000000000000000e+03 9.753748975103751491e+02
1.020000000000000000e+03 9.522296091286299315e+02
1.021000000000000000e+03 9.135153496894421323e+02
1.022000000000000000e+03 8.740382012448119440e+02
1.023000000000000000e+03 8.198558354771785162e+02
1.024000000000000000e+03 7.696303867219894528e+02
1.025000000000000000e+03 7.179344571428546260e+02
1.026000000000000000e+03 6.415253726141096422e+02
1.027000000000000000e+03 5.691305950207442947e+02
1.028000000000000000e+03 5.012614294605746181e+02
1.029000000000000000e+03 4.403289029045685083e+02
1.030000000000000000e+03 3.758645665975094516e+02
1.031000000000000000e+03 3.135643049792486181e+02
1.032000000000000000e+03 2.656491761410821937e+02
1.033000000000000000e+03 2.185785871369310485e+02
1.034000000000000000e+03 1.754027336099569538e+02
1.035000000000000000e+03 1.468462697095415592e+02
1.036000000000000000e+03 1.216917796680509127e+02
1.037000000000000000e+03 1.011549934024894952e+02
1.038000000000000000e+03 7.776143863070353746e+01
1.039000000000000000e+03 6.024300425311317042e+01
1.040000000000000000e+03 4.695491682572634318e+01
1.041000000000000000e+03 3.799628176348513620e+01
1.042000000000000000e+03 2.061123397515626010e+01
1.043000000000000000e+03 7.910886398340339021e+00
1.044000000000000000e+03 7.521180273858856680e+00
1.045000000000000000e+03 5.238217439834084388e+00
1.046000000000000000e+03 9.986182556016320433e+00
1.047000000000000000e+03 3.965479773858919366e+00
1.048000000000000000e+03 5.590642153526523828e+00
1.049000000000000000e+03 6.767682101660465577e+00
1.050000000000000000e+03 8.581151890269396176e+00
1.051000000000000000e+03 5.632703323651378824e+00
1.052000000000000000e+03 4.189944813279877778e+00
1.053000000000000000e+03 1.680600253112000786e+01
1.054000000000000000e+03 2.147906942028987487e+01
1.055000000000000000e+03 2.923416396265613670e+01
1.056000000000000000e+03 3.498623535269694429e+01
1.057000000000000000e+03 3.746070022821556478e+01
1.058000000000000000e+03 5.556548408713748444e+01
1.059000000000000000e+03 6.169087120331960250e+01
1.060000000000000000e+03 7.089731112033112481e+01
1.061000000000000000e+03 8.787406775933618519e+01
1.062000000000000000e+03 9.849231697095430604e+01
1.063000000000000000e+03 1.011344331950200370e+02
1.064000000000000000e+03 1.130141547717839359e+02
1.065000000000000000e+03 1.284207551867224595e+02
1.066000000000000000e+03 1.404681290456430816e+02
1.067000000000000000e+03 1.626745709543562839e+02
1.068000000000000000e+03 1.545846460580910389e+02
1.069000000000000000e+03 1.680382468879690521e+02
1.070000000000000000e+03 1.756550116182575891e+02
1.071000000000000000e+03 1.718348188405797146e+02
1.072000000000000000e+03 1.678464221991697514e+02
1.073000000000000000e+03 1.666515379668045966e+02
1.074000000000000000e+03 1.741623012448138468e+02
1.075000000000000000e+03 1.619129511387162665e+02
1.076000000000000000e+03 1.579533257261408892e+02
1.077000000000000000e+03 1.528522170124484774e+02
1.078000000000000000e+03 1.487301514522821719e+02
1.079000000000000000e+03 1.469632304347823606e+02
1.080000000000000000e+03 1.258948551867250671e+02
1.081000000000000000e+03 1.120479244813276267e+02
1.082000000000000000e+03 1.173331300829876369e+02
1.083000000000000000e+03 1.168541217842320776e+02
1.084000000000000000e+03 1.108873443983406446e+02
1.085000000000000000e+03 1.061492867219917002e+02
1.086000000000000000e+03 1.148083452282162966e+02
1.087000000000000000e+03 1.096442797101461224e+02
1.088000000000000000e+03 9.609841705394215694e+01
1.089000000000000000e+03 8.484806213692927201e+01
1.090000000000000000e+03 8.964090966805034100e+01
1.091000000000000000e+03 8.997714634854864357e+01
1.092000000000000000e+03 7.670676380952374984e+01
1.093000000000000000e+03 6.683452099584997086e+01
1.094000000000000000e+03 6.228994842323641024e+01
1.095000000000000000e+03 6.103500510373469723e+01
1.096000000000000000e+03 4.381696086956438307e+01
1.097000000000000000e+03 3.699980232365165023e+01
1.098000000000000000e+03 3.492226460580920389e+01
1.099000000000000000e+03 3.285372172199168261e+01
1.100000000000000000e+03 3.289273720496904474e+01
1.101000000000000000e+03 2.672872838174352950e+01
1.102000000000000000e+03 1.887451128630707586e+01
1.103000000000000000e+03 1.641852917012431234e+01
1.104000000000000000e+03 1.265131869565195899e+01
1.105000000000000000e+03 8.295248701244959832e+00
1.106000000000000000e+03 4.941736655601605577e+00
1.107000000000000000e+03 3.471211898340047508e+00
1.108000000000000000e+03 7.925996825727381623e-01
1.109000000000000000e+03 3.806799975103744682e+00
1.110000000000000000e+03 1.376978630705144369e+00
1.111000000000000000e+03 1.342543576763733038e+00
1.112000000000000000e+03 3.187042360995644863e+00
1.113000000000000000e+03 4.536248180497876703e+00
1.114000000000000000e+03 4.203452771785053166e+00
1.115000000000000000e+03 1.036054806224120206e+01
1.116000000000000000e+03 3.457858149068322895e+00
1.117000000000000000e+03 5.512493946058197203e+00
1.118000000000000000e+03 5.876399298755010214e+00
1.119000000000000000e+03 9.861535020746813984e+00
1.120000000000000000e+03 3.040223141078572944e+00
1.121000000000000000e+03 2.304956623188306075e+00
1.122000000000000000e+03 2.476253593361135152e+00
1.123000000000000000e+03 4.127374221991674474e+00
1.124000000000000000e+03 2.566816831950547773e+00
1.125000000000000000e+03 2.429185652174215893e+00
1.126000000000000000e+03 1.420636500414923198e+01
1.127000000000000000e+03 8.915483858920797644e+00
1.128000000000000000e+03 1.811297958506667083e+00
1.129000000000000000e+03 9.957017365144917420e+00
1.130000000000000000e+03 1.544201894190873681e+01
1.131000000000000000e+03 1.387696624481304930e+01
1.132000000000000000e+03 1.453823541493741089e+01
1.133000000000000000e+03 1.510713552795034609e+01
1.134000000000000000e+03 1.371854962655607935e+01
1.135000000000000000e+03 1.965213074688782058e+01
1.136000000000000000e+03 2.548355630705419017e+01
1.137000000000000000e+03 1.373619547717834344e+01
1.138000000000000000e+03 2.023032560166051752e+01
1.139000000000000000e+03 1.630547039419116828e+01
1.140000000000000000e+03 2.518398205394183265e+01
1.141000000000000000e+03 2.344436345755669038e+01
1.142000000000000000e+03 2.073529630705375126e+01
1.143000000000000000e+03 2.715673601659721470e+01
1.144000000000000000e+03 3.470696991701252898e+01
1.145000000000000000e+03 3.149379755693551175e+01
1.146000000000000000e+03 2.364432493775932187e+01
1.147000000000000000e+03 2.672218748962659163e+01
1.148000000000000000e+03 3.318252589211689241e+01
1.149000000000000000e+03 4.359485271784228644e+01
1.150000000000000000e+03 3.395500465838531312e+01
1.151000000000000000e+03 3.409560572614130791e+01
1.152000000000000000e+03 4.014708195020811843e+01
1.153000000000000000e+03 4.232737186721990952e+01
1.154000000000000000e+03 4.032356745341607507e+01
1.155000000000000000e+03 4.142301690871411068e+01
1.156000000000000000e+03 4.296499802904595100e+01
1.157000000000000000e+03 4.234423991701225987e+01
1.158000000000000000e+03 4.741388626556000219e+01
1.159000000000000000e+03 4.567948224066400087e+01
1.160000000000000000e+03 5.060365763485453527e+01
1.161000000000000000e+03 5.400349892116184236e+01
1.162000000000000000e+03 5.003087459627297306e+01
1.163000000000000000e+03 5.243424595435652691e+01
1.164000000000000000e+03 5.430987161825726162e+01
1.165000000000000000e+03 5.036005184647271449e+01
1.166000000000000000e+03 4.809401186721984089e+01
1.167000000000000000e+03 4.678567858921172729e+01
1.168000000000000000e+03 4.917452605809172894e+01
1.169000000000000000e+03 5.620954701244739482e+01
1.170000000000000000e+03 4.517732658385132538e+01
1.171000000000000000e+03 4.253840703319504968e+01
1.172000000000000000e+03 4.498141085062206201e+01
1.173000000000000000e+03 3.626183091286333138e+01
1.174000000000000000e+03 4.325025316770155115e+01
1.175000000000000000e+03 4.858497788381750127e+01
1.176000000000000000e+03 5.027803597510367695e+01
1.177000000000000000e+03 4.931942120331966350e+01
1.178000000000000000e+03 4.646312547717842989e+01
1.179000000000000000e+03 4.482098514522817823e+01
1.180000000000000000e+03 4.572893518672186275e+01
1.181000000000000000e+03 4.654040993775938517e+01
1.182000000000000000e+03 4.355524871369271978e+01
1.183000000000000000e+03 4.004718751037241731e+01
1.184000000000000000e+03 4.986410091286294488e+01
1.185000000000000000e+03 4.683992427385883417e+01
1.186000000000000000e+03 4.093008659750994838e+01
1.187000000000000000e+03 3.546002946058115413e+01
1.188000000000000000e+03 3.680304114107880764e+01
1.189000000000000000e+03 3.905364352697131380e+01
1.190000000000000000e+03 4.199187112033115454e+01
1.191000000000000000e+03 5.244818503105587837e+01
1.192000000000000000e+03 4.782150107883803258e+01
1.193000000000000000e+03 4.331051307053901667e+01
1.194000000000000000e+03 3.888543029045671062e+01
1.195000000000000000e+03 4.210191014492690442e+01
1.196000000000000000e+03 7.756362966804842074e+01
1.197000000000000000e+03 8.297925381742682305e+01
1.198000000000000000e+03 7.856233670124433388e+01
1.199000000000000000e+03 5.025779722567142471e+01
1.200000000000000000e+03 3.001738319502081964e+01
1.201000000000000000e+03 3.010193261410818266e+01
1.202000000000000000e+03 3.114477481327799069e+01
1.203000000000000000e+03 3.361786788819851068e+01
1.204000000000000000e+03 3.751729344398219013e+01
1.205000000000000000e+03 4.716879804979252810e+01
1.206000000000000000e+03 3.723127470954315044e+01
1.207000000000000000e+03 2.598497139004104994e+01
1.208000000000000000e+03 3.688130008298743689e+01
1.209000000000000000e+03 3.647898340248956117e+01
1.210000000000000000e+03 3.119428730290416141e+01
1.211000000000000000e+03 2.632442883817497403e+01
1.212000000000000000e+03 1.593546902691537248e+01
1.213000000000000000e+03 1.436457993775967701e+01
1.214000000000000000e+03 1.962460029045647047e+01
1.215000000000000000e+03 2.915744261410690896e+01
1.216000000000000000e+03 3.380033507246361779e+01
1.217000000000000000e+03 2.597039360995827195e+01
1.218000000000000000e+03 2.215631120332017545e+01
1.219000000000000000e+03 1.332535091286313644e+01
1.220000000000000000e+03 2.101126981366507351e+01
1.221000000000000000e+03 2.288638831950213870e+01
1.222000000000000000e+03 1.085972786307019433e+01
1.223000000000000000e+03 2.644939315352714715e+01
1.224000000000000000e+03 2.475131782608645281e+01
1.225000000000000000e+03 1.158609222406694172e+01
1.226000000000000000e+03 1.905863099585057086e+01
1.227000000000000000e+03 1.870304385891992993e+01
1.228000000000000000e+03 1.054471685477183662e+01
1.229000000000000000e+03 1.138458473029065843e+01
1.230000000000000000e+03 8.691210622406908115e+00
1.231000000000000000e+03 1.483284900414938789e+01
1.232000000000000000e+03 9.001268134855161307e+00
1.233000000000000000e+03 7.648543692946077499e+00
1.234000000000000000e+03 1.415852232365190666e+01
1.235000000000000000e+03 1.117317193361057015e+01
1.236000000000000000e+03 4.513277465838667624e+00
1.237000000000000000e+03 1.087841205394330490e+00
1.238000000000000000e+03 7.827786346473390111e+00
1.239000000000000000e+03 3.462587582987483703e+00
1.240000000000000000e+03 2.898216205394192002e+00
1.241000000000000000e+03 2.156942875775876178e+00
1.242000000000000000e+03 1.470389630705447148e+00
1.243000000000000000e+03 5.228487427385836384e+00
1.244000000000000000e+03 1.990756875518298052e+00
1.245000000000000000e+03 6.772595973085007159e+00
1.246000000000000000e+03 5.077395060165593499e+00
1.247000000000000000e+03 3.067358641078771875e+00
1.248000000000000000e+03 5.614047292531299860e+00
1.249000000000000000e+03 1.315622854771939965e+00
1.250000000000000000e+03 5.595730414937686303e-01
1.251000000000000000e+03 3.140232821576913302e+00
1.252000000000000000e+03 5.555427228215745750e+00
1.253000000000000000e+03 2.038233467908880492e+00
1.254000000000000000e+03 2.377046317427725430e+00
1.255000000000000000e+03 8.450323796680489608e+00
1.256000000000000000e+03 6.980141842323824619e+00
1.257000000000000000e+03 4.437290763485509437e+00
1.258000000000000000e+03 1.820224879667850848e+00
1.259000000000000000e+03 1.926119481327636773e+00
1.260000000000000000e+03 8.482760365145100678e+00
1.261000000000000000e+03 2.866882493775797514e+00
1.262000000000000000e+03 3.980562647302067436e+00
1.263000000000000000e+03 4.618605721991665192e+00
1.264000000000000000e+03 5.655347888278191570e-01
1.265000000000000000e+03 3.733552395445324024e+00
1.266000000000000000e+03 9.819308639003562433e+00
1.267000000000000000e+03 9.936879626556148537e+00
1.268000000000000000e+03 3.467367676348308336e+00
1.269000000000000000e+03 2.814435248962515068e+00
1.270000000000000000e+03 4.162934463767948401e+00
1.271000000000000000e+03 1.237657431535269481e+01
1.272000000000000000e+03 8.636868630705171412e+00
1.273000000000000000e+03 7.594205012448152381e+00
1.274000000000000000e+03 7.547108484472058620e+00
1.275000000000000000e+03 4.193648738589031311e+00
1.276000000000000000e+03 2.999984954356635924e+00
1.277000000000000000e+03 5.473968863070312274e+00
1.278000000000000000e+03 1.045170688796695124e+01
1.279000000000000000e+03 1.369654819502078524e+01
1.280000000000000000e+03 1.310099829875538369e+01
1.281000000000000000e+03 6.965347850622503501e+00
1.282000000000000000e+03 1.359848127122256223e+01
1.283000000000000000e+03 1.579999394191003148e+01
1.284000000000000000e+03 7.798569414937762900e+00
1.285000000000000000e+03 5.080234983402428739e+00
1.286000000000000000e+03 5.725594502075064263e+00
1.287000000000000000e+03 1.152811782157647968e+01
1.288000000000000000e+03 1.049417653526970540e+01
1.289000000000000000e+03 8.503908203319562986e+00
1.290000000000000000e+03 8.880540066253214349e+00
1.291000000000000000e+03 2.545184887966849718e+00
1.292000000000000000e+03 3.002024128630776723e+00
1.293000000000000000e+03 4.351687074688843637e+00
1.294000000000000000e+03 6.560913993788648035e+00
1.295000000000000000e+03 9.108683562240699416e+00
1.296000000000000000e+03 1.186714477178443516e+01
1.297000000000000000e+03 7.976937097511196839e+00
1.298000000000000000e+03 3.372890568464753880e+00
1.299000000000000000e+03 2.413435807453314652e+00
1.300000000000000000e+03 6.846848116181849520e+00
1.301000000000000000e+03 1.023570572614131891e+01
1.302000000000000000e+03 5.531883029045094879e-01
1.303000000000000000e+03 1.132674010321385039e+00
1.304000000000000000e+03 3.385834344830932485e-01
1.305000000000000000e+03 2.044469813278083414e+00
1.306000000000000000e+03 0.000000000000000000e+00
1.307000000000000000e+03 0.000000000000000000e+00
1.308000000000000000e+03 0.000000000000000000e+00
1.309000000000000000e+03 0.000000000000000000e+00
1.310000000000000000e+03 0.000000000000000000e+00
1.311000000000000000e+03 0.000000000000000000e+00
1.312000000000000000e+03 0.000000000000000000e+00
1.313000000000000000e+03 0.000000000000000000e+00
1.314000000000000000e+03 0.000000000000000000e+00
1.315000000000000000e+03 0.000000000000000000e+00
1.316000000000000000e+03 0.000000000000000000e+00
1.317000000000000000e+03 0.000000000000000000e+00
1.318000000000000000e+03 0.000000000000000000e+00
1.319000000000000000e+03 0.000000000000000000e+00
1.320000000000000000e+03 0.000000000000000000e+00
1.321000000000000000e+03 0.000000000000000000e+00
1.322000000000000000e+03 0.000000000000000000e+00
1.323000000000000000e+03 0.000000000000000000e+00
1.324000000000000000e+03 0.000000000000000000e+00
1.325000000000000000e+03 0.000000000000000000e+00
1.326000000000000000e+03 0.000000000000000000e+00
1.327000000000000000e+03 0.000000000000000000e+00
1.328000000000000000e+03 0.000000000000000000e+00
1.329000000000000000e+03 0.000000000000000000e+00
1.330000000000000000e+03 0.000000000000000000e+00
1.331000000000000000e+03 0.000000000000000000e+00
1.332000000000000000e+03 0.000000000000000000e+00
1.333000000000000000e+03 0.000000000000000000e+00
1.334000000000000000e+03 0.000000000000000000e+00
1.335000000000000000e+03 0.000000000000000000e+00
1.336000000000000000e+03 0.000000000000000000e+00
1.337000000000000000e+03 0.000000000000000000e+00
1.338000000000000000e+03 0.000000000000000000e+00
1.339000000000000000e+03 0.000000000000000000e+00
1.340000000000000000e+03 0.000000000000000000e+00
1.341000000000000000e+03 0.000000000000000000e+00
1.342000000000000000e+03 0.000000000000000000e+00
1.343000000000000000e+03 0.000000000000000000e+00
1.344000000000000000e+03 0.000000000000000000e+00
1.345000000000000000e+03 0.000000000000000000e+00
1.346000000000000000e+03 0.000000000000000000e+00
1.347000000000000000e+03 0.000000000000000000e+00
1.348000000000000000e+03 0.000000000000000000e+00
1.349000000000000000e+03 0.000000000000000000e+00
1.350000000000000000e+03 0.000000000000000000e+00
1.351000000000000000e+03 0.000000000000000000e+00
1.352000000000000000e+03 0.000000000000000000e+00
1.353000000000000000e+03 0.000000000000000000e+00
1.354000000000000000e+03 0.000000000000000000e+00
1.355000000000000000e+03 0.000000000000000000e+00
1.356000000000000000e+03 0.000000000000000000e+00
1.357000000000000000e+03 0.000000000000000000e+00
1.358000000000000000e+03 0.000000000000000000e+00
1.359000000000000000e+03 0.000000000000000000e+00
1.360000000000000000e+03 0.000000000000000000e+00
1.361000000000000000e+03 0.000000000000000000e+00
1.362000000000000000e+03 0.000000000000000000e+00
1.363000000000000000e+03 0.000000000000000000e+00
1.364000000000000000e+03 0.000000000000000000e+00
1.365000000000000000e+03 0.000000000000000000e+00
1.366000000000000000e+03 0.000000000000000000e+00
1.367000000000000000e+03 0.000000000000000000e+00
1.368000000000000000e+03 0.000000000000000000e+00
1.369000000000000000e+03 0.000000000000000000e+00
1.370000000000000000e+03 0.000000000000000000e+00
1.371000000000000000e+03 0.000000000000000000e+00
1.372000000000000000e+03 0.000000000000000000e+00
1.373000000000000000e+03 0.000000000000000000e+00
1.374000000000000000e+03 0.000000000000000000e+00
1.375000000000000000e+03 0.000000000000000000e+00
1.376000000000000000e+03 0.000000000000000000e+00
1.377000000000000000e+03 0.000000000000000000e+00
1.378000000000000000e+03 0.000000000000000000e+00
1.379000000000000000e+03 0.000000000000000000e+00
1.380000000000000000e+03 0.000000000000000000e+00
1.381000000000000000e+03 0.000000000000000000e+00
1.382000000000000000e+03 0.000000000000000000e+00
1.383000000000000000e+03 0.000000000000000000e+00
1.384000000000000000e+03 0.000000000000000000e+00
1.385000000000000000e+03 0.000000000000000000e+00
1.386000000000000000e+03 0.000000000000000000e+00
1.387000000000000000e+03 0.000000000000000000e+00
1.388000000000000000e+03 0.000000000000000000e+00
1.389000000000000000e+03 0.000000000000000000e+00
1.390000000000000000e+03 0.000000000000000000e+00
1.391000000000000000e+03 0.000000000000000000e+00
1.392000000000000000e+03 0.000000000000000000e+00
1.393000000000000000e+03 0.000000000000000000e+00
1.394000000000000000e+03 0.000000000000000000e+00
1.395000000000000000e+03 0.000000000000000000e+00
1.396000000000000000e+03 0.000000000000000000e+00
1.397000000000000000e+03 0.000000000000000000e+00
1.398000000000000000e+03 0.000000000000000000e+00
1.399000000000000000e+03 0.000000000000000000e+00
1.400000000000000000e+03 0.000000000000000000e+00
1.401000000000000000e+03 0.000000000000000000e+00
1.402000000000000000e+03 0.000000000000000000e+00
1.403000000000000000e+03 0.000000000000000000e+00
1.404000000000000000e+03 0.000000000000000000e+00
1.405000000000000000e+03 0.000000000000000000e+00
1.406000000000000000e+03 0.000000000000000000e+00
1.407000000000000000e+03 0.000000000000000000e+00
1.408000000000000000e+03 0.000000000000000000e+00
1.409000000000000000e+03 0.000000000000000000e+00
1.410000000000000000e+03 0.000000000000000000e+00
1.411000000000000000e+03 0.000000000000000000e+00
1.412000000000000000e+03 0.000000000000000000e+00
1.413000000000000000e+03 0.000000000000000000e+00
1.414000000000000000e+03 0.000000000000000000e+00
1.415000000000000000e+03 0.000000000000000000e+00
1.416000000000000000e+03 0.000000000000000000e+00
1.417000000000000000e+03 0.000000000000000000e+00
1.418000000000000000e+03 0.000000000000000000e+00
1.419000000000000000e+03 0.000000000000000000e+00
1.420000000000000000e+03 0.000000000000000000e+00
1.421000000000000000e+03 0.000000000000000000e+00
1.422000000000000000e+03 0.000000000000000000e+00
1.423000000000000000e+03 0.000000000000000000e+00
1.424000000000000000e+03 0.000000000000000000e+00
1.425000000000000000e+03 0.000000000000000000e+00
1.426000000000000000e+03 0.000000000000000000e+00
1.427000000000000000e+03 0.000000000000000000e+00
1.428000000000000000e+03 0.000000000000000000e+00
1.429000000000000000e+03 0.000000000000000000e+00
1.430000000000000000e+03 0.000000000000000000e+00
1.431000000000000000e+03 0.000000000000000000e+00
1.432000000000000000e+03 0.000000000000000000e+00
1.433000000000000000e+03 0.000000000000000000e+00
1.434000000000000000e+03 0.000000000000000000e+00
1.435000000000000000e+03 0.000000000000000000e+00
1.436000000000000000e+03 0.000000000000000000e+00
1.437000000000000000e+03 0.000000000000000000e+00
1.438000000000000000e+03 0.000000000000000000e+00
1.439000000000000000e+03 0.000000000000000000e+00
1.440000000000000000e+03 0.000000000000000000e+00
1.441000000000000000e+03 0.000000000000000000e+00
1.442000000000000000e+03 0.000000000000000000e+00
1.443000000000000000e+03 0.000000000000000000e+00
1.444000000000000000e+03 0.000000000000000000e+00
1.445000000000000000e+03 0.000000000000000000e+00
1.446000000000000000e+03 0.000000000000000000e+00
1.447000000000000000e+03 0.000000000000000000e+00
1.448000000000000000e+03 0.000000000000000000e+00
1.449000000000000000e+03 0.000000000000000000e+00
1.450000000000000000e+03 0.000000000000000000e+00
1.451000000000000000e+03 0.000000000000000000e+00
1.452000000000000000e+03 0.000000000000000000e+00
1.453000000000000000e+03 0.000000000000000000e+00
1.454000000000000000e+03 0.000000000000000000e+00
1.455000000000000000e+03 0.000000000000000000e+00
1.456000000000000000e+03 0.000000000000000000e+00
1.457000000000000000e+03 0.000000000000000000e+00
1.458000000000000000e+03 0.000000000000000000e+00
1.459000000000000000e+03 0.000000000000000000e+00
1.460000000000000000e+03 0.000000000000000000e+00
1.461000000000000000e+03 0.000000000000000000e+00
1.462000000000000000e+03 0.000000000000000000e+00
1.463000000000000000e+03 0.000000000000000000e+00
1.464000000000000000e+03 0.000000000000000000e+00
1.465000000000000000e+03 0.000000000000000000e+00
1.466000000000000000e+03 0.000000000000000000e+00
1.467000000000000000e+03 0.000000000000000000e+00
1.468000000000000000e+03 0.000000000000000000e+00
1.469000000000000000e+03 0.000000000000000000e+00
1.470000000000000000e+03 0.000000000000000000e+00
1.471000000000000000e+03 0.000000000000000000e+00
1.472000000000000000e+03 0.000000000000000000e+00
1.473000000000000000e+03 0.000000000000000000e+00
1.474000000000000000e+03 0.000000000000000000e+00
1.475000000000000000e+03 0.000000000000000000e+00
1.476000000000000000e+03 0.000000000000000000e+00
1.477000000000000000e+03 0.000000000000000000e+00
1.478000000000000000e+03 0.000000000000000000e+00
1.479000000000000000e+03 0.000000000000000000e+00
1.480000000000000000e+03 0.000000000000000000e+00
1.481000000000000000e+03 0.000000000000000000e+00
1.482000000000000000e+03 0.000000000000000000e+00
1.483000000000000000e+03 0.000000000000000000e+00
1.484000000000000000e+03 0.000000000000000000e+00
1.485000000000000000e+03 0.000000000000000000e+00
1.486000000000000000e+03 0.000000000000000000e+00
1.487000000000000000e+03 0.000000000000000000e+00
1.488000000000000000e+03 0.000000000000000000e+00
1.489000000000000000e+03 0.000000000000000000e+00
1.490000000000000000e+03 0.000000000000000000e+00
1.491000000000000000e+03 0.000000000000000000e+00
1.492000000000000000e+03 0.000000000000000000e+00
1.493000000000000000e+03 0.000000000000000000e+00
1.494000000000000000e+03 0.000000000000000000e+00
1.495000000000000000e+03 0.000000000000000000e+00
1.496000000000000000e+03 0.000000000000000000e+00
1.497000000000000000e+03 0.000000000000000000e+00
1.498000000000000000e+03 0.000000000000000000e+00
1.499000000000000000e+03 0.000000000000000000e+00
1.500000000000000000e+03 0.000000000000000000e+00
