1.010000000000000000e+02 0.000000000000000000e+00
1.020000000000000000e+02 0.000000000000000000e+00
1.030000000000000000e+02 0.000000000000000000e+00
1.040000000000000000e+02 0.000000000000000000e+00
1.050000000000000000e+02 0.000000000000000000e+00
1.060000000000000000e+02 0.000000000000000000e+00
1.070000000000000000e+02 0.000000000000000000e+00
1.080000000000000000e+02 0.000000000000000000e+00
1.090000000000000000e+02 0.000000000000000000e+00
1.100000000000000000e+02 0.000000000000000000e+00
1.110000000000000000e+02 0.000000000000000000e+00
1.120000000000000000e+02 0.000000000000000000e+00
1.130000000000000000e+02 0.000000000000000000e+00
1.140000000000000000e+02 0.000000000000000000e+00
1.150000000000000000e+02 0.000000000000000000e+00
1.160000000000000000e+02 0.000000000000000000e+00
1.170000000000000000e+02 0.000000000000000000e+00
1.180000000000000000e+02 0.000000000000000000e+00
1.190000000000000000e+02 0.000000000000000000e+00
1.200000000000000000e+02 0.000000000000000000e+00
1.210000000000000000e+02 0.000000000000000000e+00
1.220000000000000000e+02 0.000000000000000000e+00
1.230000000000000000e+02 0.000000000000000000e+00
1.240000000000000000e+02 0.000000000000000000e+00
1.250000000000000000e+02 0.000000000000000000e+00
1.260000000000000000e+02 0.000000000000000000e+00
1.270000000000000000e+02 0.000000000000000000e+00
1.280000000000000000e+02 0.000000000000000000e+00
1.290000000000000000e+02 0.000000000000000000e+00
1.300000000000000000e+02 0.000000000000000000e+00
1.310000000000000000e+02 0.000000000000000000e+00
1.320000000000000000e+02 0.000000000000000000e+00
1.330000000000000000e+02 0.000000000000000000e+00
1.340000000000000000e+02 0.000000000000000000e+00
1.350000000000000000e+02 0.000000000000000000e+00
1.360000000000000000e+02 0.000000000000000000e+00
1.370000000000000000e+02 0.000000000000000000e+00
1.380000000000000000e+02 0.000000000000000000e+00
1.390000000000000000e+02 0.000000000000000000e+00
1.400000000000000000e+02 0.000000000000000000e+00
1.410000000000000000e+02 0.000000000000000000e+00
1.420000000000000000e+02 7.363840136900585698e-01
1.430000000000000000e+02 1.651772446172854014e+00
1.440000000000000000e+02 3.094094314457604966e+01
1.450000000000000000e+02 3.770613205559007497e+01
1.460000000000000000e+02 2.136419413192286854e+01
1.470000000000000000e+02 5.777268899813382319e+00
1.480000000000000000e+02 1.230364746525618003e+01
1.490000000000000000e+02 1.249800344119474182e+01
1.500000000000000000e+02 2.379239622484989880e+00
1.510000000000000000e+02 3.382577234598665328e+00
1.520000000000000000e+02 2.584668749014690547e+01
1.530000000000000000e+02 4.706345798382091772e+01
1.540000000000000000e+02 6.209419393279404176e+01
1.550000000000000000e+02 7.752894406885100409e+01
1.560000000000000000e+02 9.877133217174853996e+01
1.570000000000000000e+02 1.053416364447211748e+02
1.580000000000000000e+02 1.359069277478226638e+02
1.590000000000000000e+02 1.943408901472720345e+02
1.600000000000000000e+02 2.667661880522707065e+02
1.610000000000000000e+02 3.164487600995437333e+02
1.620000000000000000e+02 2.878067722049364647e+02
1.630000000000000000e+02 2.655162256793196320e+02
1.640000000000000000e+02 2.707566193695562902e+02
1.650000000000000000e+02 2.371860291225882804e+02
1.660000000000000000e+02 1.770900490562119103e+02
1.670000000000000000e+02 1.487576716241443648e+02
1.680000000000000000e+02 1.464958992532670266e+02
1.690000000000000000e+02 1.375219792159303154e+02
1.700000000000000000e+02 1.417409800248911722e+02
1.710000000000000000e+02 1.555144072184194499e+02
1.720000000000000000e+02 1.699111874507363211e+02
1.730000000000000000e+02 1.906416456544280322e+02
1.740000000000000000e+02 2.476122410080903649e+02
1.750000000000000000e+02 3.164995936320269720e+02
1.760000000000000000e+02 4.021986818087530651e+02
1.770000000000000000e+02 5.329477303671422987e+02
1.780000000000000000e+02 7.211407570006239212e+02
1.790000000000000000e+02 8.578050201617927542e+02
1.800000000000000000e+02 7.826711428126944838e+02
1.810000000000000000e+02 5.442331292824568436e+02
1.820000000000000000e+02 3.038787794441004735e+02
1.830000000000000000e+02 1.754250125700054639e+02
1.840000000000000000e+02 1.016748853712151401e+02
1.850000000000000000e+02 7.012652762912260584e+01
1.860000000000000000e+02 6.477152106202052551e+01
1.870000000000000000e+02 4.262021462671076222e+01
1.880000000000000000e+02 4.777855582451778815e+01
1.890000000000000000e+02 5.363345359261565193e+01
1.900000000000000000e+02 4.912935167150562421e+01
1.910000000000000000e+02 5.299058186475846810e+01
1.920000000000000000e+02 7.759427299315514404e+01
1.930000000000000000e+02 8.558327310452094139e+01
1.940000000000000000e+02 7.069079744036528723e+01
1.950000000000000000e+02 4.418776854801937048e+01
1.960000000000000000e+02 1.956118570628488129e+01
1.970000000000000000e+02 2.991298953329179611e+00
1.980000000000000000e+02 4.310931729516608968e+00
1.990000000000000000e+02 1.633091357187305803e+01
2.000000000000000000e+02 1.038913375316326260e+01
2.010000000000000000e+02 2.535958360298701564e+01
2.020000000000000000e+02 2.406319983198516610e+01
2.030000000000000000e+02 1.116341503007679137e+01
2.040000000000000000e+02 2.070507244347656695e+01
2.050000000000000000e+02 5.565158571250793074e+01
2.060000000000000000e+02 8.635717720597382652e+01
2.070000000000000000e+02 9.762634408421487819e+01
2.080000000000000000e+02 9.748664746733078346e+01
2.090000000000000000e+02 1.282823727027589200e+02
2.100000000000000000e+02 1.447797762339278620e+02
2.110000000000000000e+02 1.711497212818914022e+02
2.120000000000000000e+02 2.135626729101844887e+02
2.130000000000000000e+02 2.590100613853177833e+02
2.140000000000000000e+02 3.224826514208671142e+02
2.150000000000000000e+02 3.648609009334161897e+02
2.160000000000000000e+02 3.759638971795935731e+02
2.170000000000000000e+02 3.714078839867247552e+02
2.180000000000000000e+02 3.838469085459449275e+02
2.190000000000000000e+02 4.402535474175481340e+02
2.200000000000000000e+02 5.264705121966388788e+02
2.210000000000000000e+02 6.309843633271121917e+02
2.220000000000000000e+02 7.525994567399430935e+02
2.230000000000000000e+02 9.199655144368387027e+02
2.240000000000000000e+02 9.639976743621658670e+02
2.250000000000000000e+02 8.601327726047290980e+02
2.260000000000000000e+02 6.650711458411103649e+02
2.270000000000000000e+02 4.936136226716445776e+02
2.280000000000000000e+02 3.954430964744922221e+02
2.290000000000000000e+02 3.627492276913504270e+02
2.300000000000000000e+02 3.804952118025310028e+02
2.310000000000000000e+02 4.370947482787227045e+02
2.320000000000000000e+02 4.904781966397011388e+02
2.330000000000000000e+02 5.196384088363408864e+02
2.340000000000000000e+02 5.003610411447527895e+02
2.350000000000000000e+02 4.206533769135028251e+02
2.360000000000000000e+02 3.196302444928437581e+02
2.370000000000000000e+02 2.363216274216973716e+02
2.380000000000000000e+02 1.715007061605479635e+02
2.390000000000000000e+02 1.256857184194148118e+02
2.400000000000000000e+02 1.026616647583488913e+02
2.410000000000000000e+02 7.726601011823284182e+01
2.420000000000000000e+02 7.176397087741121084e+01
2.430000000000000000e+02 7.016010384567505298e+01
2.440000000000000000e+02 5.759013932586597662e+01
2.450000000000000000e+02 6.066147870151418431e+01
2.460000000000000000e+02 7.726566977183134100e+01
2.470000000000000000e+02 1.090880384567520878e+02
2.480000000000000000e+02 1.509804306304440900e+02
2.490000000000000000e+02 1.928206263638248572e+02
2.500000000000000000e+02 2.176198518772038142e+02
2.510000000000000000e+02 2.197869324346744975e+02
2.520000000000000000e+02 2.103377157436216294e+02
2.530000000000000000e+02 1.927746122796100110e+02
2.540000000000000000e+02 1.456385563251765234e+02
2.550000000000000000e+02 1.163034490769549478e+02
2.560000000000000000e+02 9.199669377722486274e+01
2.570000000000000000e+02 6.721225761045478464e+01
2.580000000000000000e+02 5.063418664799840485e+01
2.590000000000000000e+02 4.315007339763540273e+01
2.600000000000000000e+02 3.446446200373384272e+01
2.610000000000000000e+02 4.255814572495340542e+01
2.620000000000000000e+02 6.137988799626637615e+01
2.630000000000000000e+02 3.121555327250112555e+01
2.640000000000000000e+02 1.746542593860188575e+01
2.650000000000000000e+02 1.491068256378345147e+01
2.660000000000000000e+02 1.217820183990037108e+01
2.670000000000000000e+02 2.891000642190205916e+00
2.680000000000000000e+02 6.860120599875703107e+00
2.690000000000000000e+02 1.811488941518033258e+01
2.700000000000000000e+02 2.361281813939016061e+01
2.710000000000000000e+02 2.076907137938176007e+01
2.720000000000000000e+02 1.502515503110745243e+01
2.730000000000000000e+02 1.485961634308233315e+01
2.740000000000000000e+02 3.856624916615205123e+00
2.750000000000000000e+02 1.215384220908520163e+01
2.760000000000000000e+02 1.888401598423574157e+01
2.770000000000000000e+02 5.200716625389046222e+00
2.780000000000000000e+02 3.278585823480618888e+00
2.790000000000000000e+02 2.953135833229624030e+00
2.800000000000000000e+02 1.887194723086461634e+00
2.810000000000000000e+02 5.133048169051982690e+00
2.820000000000000000e+02 9.121516185853655756e+00
2.830000000000000000e+02 4.884038600497790483e+00
2.840000000000000000e+02 1.296210637212213967e+01
2.850000000000000000e+02 2.295827657747381423e+01
2.860000000000000000e+02 4.483353408421511688e+01
2.870000000000000000e+02 4.802232478946284999e+01
2.880000000000000000e+02 6.524034502178037087e+01
2.890000000000000000e+02 9.492545394856951191e+01
2.900000000000000000e+02 1.198463486206176469e+02
2.910000000000000000e+02 1.422524925948974612e+02
2.920000000000000000e+02 1.157117635877239081e+02
2.930000000000000000e+02 7.714964746110790372e+01
2.940000000000000000e+02 5.000465082762949720e+01
2.950000000000000000e+02 2.745359334715896438e+01
2.960000000000000000e+02 1.913128819539514325e+01
2.970000000000000000e+02 1.711119542003734040e+01
2.980000000000000000e+02 1.375971272293649861e+01
2.990000000000000000e+02 1.002246521136692614e+01
3.000000000000000000e+02 1.574913583488905999e+01
3.010000000000000000e+02 4.545526547490742075e+01
3.020000000000000000e+02 5.556639111387665508e+01
3.030000000000000000e+02 5.032703902509853577e+01
3.040000000000000000e+02 5.295461540344299323e+01
3.050000000000000000e+02 6.139148814146425082e+01
3.060000000000000000e+02 4.115596047915311573e+01
3.070000000000000000e+02 2.926691074051017694e+01
3.080000000000000000e+02 2.972723712300375709e+01
3.090000000000000000e+02 1.686434660858739321e+01
3.100000000000000000e+02 9.205046110558011918e+00
3.110000000000000000e+02 6.183764664592418470e+00
3.120000000000000000e+02 1.817738013233721261e+01
3.130000000000000000e+02 3.370085246629329845e+01
3.140000000000000000e+02 2.001743391620003010e+01
3.150000000000000000e+02 1.617935079029248868e+01
3.160000000000000000e+02 6.243026750466582619e+00
3.170000000000000000e+02 1.605506785521663593e+00
3.180000000000000000e+02 1.670270839070927105e+00
3.190000000000000000e+02 3.664090287699773185e+00
3.200000000000000000e+02 1.855818065339159872e+01
3.210000000000000000e+02 2.209571386768980972e+01
3.220000000000000000e+02 1.038543922422689292e+01
3.230000000000000000e+02 3.154601426260309260e+00
3.240000000000000000e+02 6.179124579427639929e+00
3.250000000000000000e+02 1.386430892345928356e+01
3.260000000000000000e+02 2.479577191661488555e+01
3.270000000000000000e+02 1.961361160099545486e+01
3.280000000000000000e+02 1.707051512756684275e+01
3.290000000000000000e+02 4.994992511512087674e+01
3.300000000000000000e+02 6.172264523957685611e+01
3.310000000000000000e+02 7.427873738435997097e+01
3.320000000000000000e+02 1.054255791744447919e+02
3.330000000000000000e+02 1.365692746318192974e+02
3.340000000000000000e+02 1.382457576228997596e+02
3.350000000000000000e+02 1.214597888197469615e+02
3.360000000000000000e+02 8.766222051026667828e+01
3.370000000000000000e+02 4.923421782410254366e+01
3.380000000000000000e+02 4.363927605476045102e+01
3.390000000000000000e+02 5.670237315494735952e+01
3.400000000000000000e+02 5.807032223397614956e+01
3.410000000000000000e+02 6.204673186268432516e+01
3.420000000000000000e+02 9.168475498548264113e+01
3.430000000000000000e+02 1.125154098942126950e+02
3.440000000000000000e+02 1.110696182534741752e+02
3.450000000000000000e+02 1.047566481435387260e+02
3.460000000000000000e+02 1.049775540344325861e+02
3.470000000000000000e+02 1.095966370877411435e+02
3.480000000000000000e+02 1.067333558805227227e+02
3.490000000000000000e+02 1.133521713130054849e+02
3.500000000000000000e+02 1.324596269238743673e+02
3.510000000000000000e+02 1.575916967019292088e+02
3.520000000000000000e+02 1.809633698195395368e+02
3.530000000000000000e+02 1.977353953951461563e+02
3.540000000000000000e+02 1.964811905621239134e+02
3.550000000000000000e+02 1.673889392034843695e+02
3.560000000000000000e+02 1.349727800912485236e+02
3.570000000000000000e+02 1.501123886123210127e+02
3.580000000000000000e+02 1.410426701099355284e+02
3.590000000000000000e+02 1.435577367689755874e+02
3.600000000000000000e+02 1.430442193113466658e+02
3.610000000000000000e+02 1.344129335407594681e+02
3.620000000000000000e+02 1.559710110742432221e+02
3.630000000000000000e+02 1.932325949388087167e+02
3.640000000000000000e+02 2.233151136278775084e+02
3.650000000000000000e+02 2.624782964744913443e+02
3.660000000000000000e+02 3.306668074673298179e+02
3.670000000000000000e+02 4.267736760423135820e+02
3.680000000000000000e+02 5.245854150145172525e+02
3.690000000000000000e+02 6.431869097490148306e+02
3.700000000000000000e+02 7.457419649657744003e+02
3.710000000000000000e+02 7.785326744866199533e+02
3.720000000000000000e+02 6.747585198091668417e+02
3.730000000000000000e+02 4.919554071976760952e+02
3.740000000000000000e+02 3.438270387678880979e+02
3.750000000000000000e+02 2.534648535780944201e+02
3.760000000000000000e+02 1.904427674341417003e+02
3.770000000000000000e+02 1.600806696328567682e+02
3.780000000000000000e+02 1.477364279610038977e+02
3.790000000000000000e+02 1.349315924082137030e+02
3.800000000000000000e+02 1.223193431238333631e+02
3.810000000000000000e+02 1.195410990873263160e+02
3.820000000000000000e+02 1.195494314872432682e+02
3.830000000000000000e+02 1.247570627048329328e+02
3.840000000000000000e+02 1.430216070939635244e+02
3.850000000000000000e+02 1.719574230194936035e+02
3.860000000000000000e+02 2.001214037751504407e+02
3.870000000000000000e+02 2.275580952914332045e+02
3.880000000000000000e+02 2.469098766694317817e+02
3.890000000000000000e+02 2.786441271313010475e+02
3.900000000000000000e+02 3.463745395146239616e+02
3.910000000000000000e+02 4.486251479054349147e+02
3.920000000000000000e+02 5.404688760838017743e+02
3.930000000000000000e+02 6.425777677660249765e+02
3.940000000000000000e+02 7.292374697013672176e+02
3.950000000000000000e+02 7.808464962041080071e+02
3.960000000000000000e+02 7.778859185023845839e+02
3.970000000000000000e+02 6.004241015349539339e+02
3.980000000000000000e+02 4.426595527069100058e+02
3.990000000000000000e+02 3.111684735532079458e+02
4.000000000000000000e+02 2.078744560464637914e+02
4.010000000000000000e+02 1.601918734080069555e+02
4.020000000000000000e+02 1.474357658991911535e+02
4.030000000000000000e+02 1.407664818917236857e+02
4.040000000000000000e+02 1.304392577473553558e+02
4.050000000000000000e+02 1.221216159303049125e+02
4.060000000000000000e+02 1.280401107654014083e+02
4.070000000000000000e+02 1.204205488487865097e+02
4.080000000000000000e+02 1.422951816842978587e+02
4.090000000000000000e+02 1.485572807923665550e+02
4.100000000000000000e+02 1.371566157643644317e+02
4.110000000000000000e+02 1.555171064703443733e+02
4.120000000000000000e+02 1.801979249533286236e+02
4.130000000000000000e+02 2.160490042522307306e+02
4.140000000000000000e+02 2.520775998755705132e+02
4.150000000000000000e+02 2.821835571458197478e+02
4.160000000000000000e+02 3.018083808960797114e+02
4.170000000000000000e+02 2.838359851721275504e+02
4.180000000000000000e+02 2.733995361958100716e+02
4.190000000000000000e+02 2.409949749637013667e+02
4.200000000000000000e+02 1.828405209041893045e+02
4.210000000000000000e+02 1.300045209085253077e+02
4.220000000000000000e+02 9.740856847334602264e+01
4.230000000000000000e+02 4.729126626918224474e+01
4.240000000000000000e+02 3.183523330221957437e+01
4.250000000000000000e+02 4.928083100808962769e+01
4.260000000000000000e+02 5.923063138767857794e+01
4.270000000000000000e+02 3.693552420659589330e+01
4.280000000000000000e+02 3.298382234391210943e+01
4.290000000000000000e+02 3.864946884878654743e+01
4.300000000000000000e+02 4.996616042314921202e+01
4.310000000000000000e+02 6.042914577058686376e+01
4.320000000000000000e+02 3.138867000000045948e+01
4.330000000000000000e+02 4.063817360298627079e+01
4.340000000000000000e+02 4.688715484131913058e+01
4.350000000000000000e+02 3.392759398257638281e+01
4.360000000000000000e+02 2.236875912258877364e+01
4.370000000000000000e+02 2.888228837411874395e+01
4.380000000000000000e+02 1.795987763741964116e+01
4.390000000000000000e+02 1.207436474797757597e+01
4.400000000000000000e+02 1.467621797552372875e+01
4.410000000000000000e+02 1.125455673330584716e+01
4.420000000000000000e+02 4.945672387678916593e+00
4.430000000000000000e+02 3.504228125700026730e+00
4.440000000000000000e+02 1.375185478224807056e+01
4.450000000000000000e+02 2.114459810205360313e+01
4.460000000000000000e+02 1.929665256378338611e+01
4.470000000000000000e+02 5.095204057652508389e+00
4.480000000000000000e+02 8.904654592406386904e-01
4.490000000000000000e+02 9.428936847749589845e+00
4.500000000000000000e+02 1.112330387264074361e+01
4.510000000000000000e+02 4.486619031943573255e+00
4.520000000000000000e+02 6.992832072184437031e+00
4.530000000000000000e+02 2.124642861232105062e+01
4.540000000000000000e+02 1.019050962331514576e+01
4.550000000000000000e+02 3.063777588052297940e+00
4.560000000000000000e+02 1.753847826384539399e+00
4.570000000000000000e+02 3.992943853764883588e+00
4.580000000000000000e+02 1.425577129454439529e+01
4.590000000000000000e+02 6.199864744036454489e+00
4.600000000000000000e+02 1.493872687990034009e+01
4.610000000000000000e+02 2.568943807093977227e+01
4.620000000000000000e+02 7.064615685749878971e+00
4.630000000000000000e+02 1.768158251192662789e+00
4.640000000000000000e+02 6.846564669639153777e+00
4.650000000000000000e+02 4.207498419000109457e+00
4.660000000000000000e+02 2.497803205351690981e+00
4.670000000000000000e+02 6.831341175445872160e+00
4.680000000000000000e+02 3.089030460692800961e+00
4.690000000000000000e+02 2.364942185231328864e+01
4.700000000000000000e+02 2.260630360846116815e+01
4.710000000000000000e+02 1.725180095208430586e+01
4.720000000000000000e+02 3.191179356979861126e+01
4.730000000000000000e+02 2.862590369970964588e+01
4.740000000000000000e+02 2.793854408628914499e+01
4.750000000000000000e+02 2.647108877411329431e+01
4.760000000000000000e+02 1.707405800705099708e+01
4.770000000000000000e+02 6.490611582451759176e+00
4.780000000000000000e+02 1.362538352623933946e+01
4.790000000000000000e+02 1.539121691765190825e+01
4.800000000000000000e+02 1.034044206098317886e+01
4.810000000000000000e+02 2.057143109728274410e+01
4.820000000000000000e+02 3.440287857290993401e+01
4.830000000000000000e+02 2.486089465048749148e+01
4.840000000000000000e+02 3.792157112632249749e+01
4.850000000000000000e+02 5.140039095208469178e+01
4.860000000000000000e+02 5.108587418792757973e+01
4.870000000000000000e+02 4.418372058908932587e+01
4.880000000000000000e+02 4.197722869114296174e+01
4.890000000000000000e+02 3.967303683883019971e+01
4.900000000000000000e+02 2.999390494710610966e+01
4.910000000000000000e+02 3.638568692180031405e+01
4.920000000000000000e+02 4.413839555901277123e+01
4.930000000000000000e+02 4.043135691621725414e+01
4.940000000000000000e+02 4.797926846919724397e+01
4.950000000000000000e+02 5.848949612735945180e+01
4.960000000000000000e+02 4.422025200746583806e+01
4.970000000000000000e+02 3.382681858950429188e+01
4.980000000000000000e+02 3.818053322339763156e+01
4.990000000000000000e+02 3.391421248859390403e+01
5.000000000000000000e+02 3.309429978427715469e+01
5.010000000000000000e+02 4.678587193113479969e+01
5.020000000000000000e+02 4.867640708834533569e+01
5.030000000000000000e+02 4.541980079651531099e+01
5.040000000000000000e+02 5.886381616262237060e+01
5.050000000000000000e+02 8.224982379589278025e+01
5.060000000000000000e+02 8.583664547811669365e+01
5.070000000000000000e+02 7.622863695706251974e+01
5.080000000000000000e+02 7.320558663347840422e+01
5.090000000000000000e+02 8.216054026965358048e+01
5.100000000000000000e+02 8.448619892138533771e+01
5.110000000000000000e+02 1.084149184816427862e+02
5.120000000000000000e+02 1.312272855631610753e+02
5.130000000000000000e+02 1.374199312733305192e+02
5.140000000000000000e+02 1.355036888404895024e+02
5.150000000000000000e+02 1.361998916614810469e+02
5.160000000000000000e+02 1.233093338448772727e+02
5.170000000000000000e+02 1.160921944617298749e+02
5.180000000000000000e+02 1.091987189587221678e+02
5.190000000000000000e+02 9.916491288529334724e+01
5.200000000000000000e+02 9.103420542211138411e+01
5.210000000000000000e+02 7.716592294337269209e+01
5.220000000000000000e+02 7.071745141256991474e+01
5.230000000000000000e+02 6.483016374403644022e+01
5.240000000000000000e+02 5.439147858742998665e+01
5.250000000000000000e+02 4.904435506326499450e+01
5.260000000000000000e+02 6.118565064716868562e+01
5.270000000000000000e+02 6.128083857498445042e+01
5.280000000000000000e+02 7.027736239576834976e+01
5.290000000000000000e+02 7.636214108483717666e+01
5.300000000000000000e+02 7.617691270068449683e+01
5.310000000000000000e+02 7.239435730553807957e+01
5.320000000000000000e+02 5.055672922630160571e+01
5.330000000000000000e+02 5.053288817088342455e+01
5.340000000000000000e+02 5.237474666874091156e+01
5.350000000000000000e+02 4.330686644057260537e+01
5.360000000000000000e+02 2.829603193902948988e+01
5.370000000000000000e+02 2.242241898776187270e+01
5.380000000000000000e+02 1.520231551545327875e+01
5.390000000000000000e+02 1.533974255495643391e+01
5.400000000000000000e+02 1.208996909769760819e+01
5.410000000000000000e+02 7.609906247873884588e+00
5.420000000000000000e+02 1.037580883533802911e+01
5.430000000000000000e+02 9.972777435801702950e+00
5.440000000000000000e+02 1.225379019290597604e+01
5.450000000000000000e+02 2.022322003733668794e+01
5.460000000000000000e+02 2.999614469819541540e+01
5.470000000000000000e+02 3.749411416096246796e+01
5.480000000000000000e+02 3.960674556730977258e+01
5.490000000000000000e+02 2.294703843186069747e+01
5.500000000000000000e+02 4.592011107446657547e+01
5.510000000000000000e+02 5.178595826799440971e+01
5.520000000000000000e+02 3.668361596349318887e+01
5.530000000000000000e+02 3.007524616054787359e+01
5.540000000000000000e+02 1.755119366521483926e+01
5.550000000000000000e+02 1.232478303049165191e+01
5.560000000000000000e+02 1.130380789462767943e+01
5.570000000000000000e+02 1.788799465256150611e+01
5.580000000000000000e+02 2.164696691350384938e+01
5.590000000000000000e+02 9.050239990667455103e+00
5.600000000000000000e+02 2.346678834681599568e+01
5.610000000000000000e+02 1.888496947106414581e+01
5.620000000000000000e+02 1.150157311489008372e+01
5.630000000000000000e+02 1.744338919103964614e+01
5.640000000000000000e+02 2.794510813109295810e+01
5.650000000000000000e+02 9.895133294691525805e+00
5.660000000000000000e+02 8.525482269239228472e-01
5.670000000000000000e+02 4.267320530180827021e+00
5.680000000000000000e+02 1.599044565740315882e+01
5.690000000000000000e+02 2.153480153080277759e+01
5.700000000000000000e+02 1.274782896701970003e+01
5.710000000000000000e+02 6.475097985068553719e+00
5.720000000000000000e+02 1.275566448662066854e+01
5.730000000000000000e+02 2.608329446380371408e+01
5.740000000000000000e+02 4.103863658577046181e+01
5.750000000000000000e+02 4.507692477494317274e+01
5.760000000000000000e+02 2.514226691350359744e+01
5.770000000000000000e+02 1.661260766023649182e+01
5.780000000000000000e+02 3.623312377515061655e+01
5.790000000000000000e+02 2.255159996058857530e+01
5.800000000000000000e+02 1.680000349512624336e+00
5.810000000000000000e+02 1.753026352831413348e+01
5.820000000000000000e+02 2.800993886952939604e+01
5.830000000000000000e+02 3.281542107446568934e+01
5.840000000000000000e+02 4.734950131300656295e+01
5.850000000000000000e+02 4.943773339278241963e+01
5.860000000000000000e+02 4.127361161169871195e+01
5.870000000000000000e+02 4.404157269238740469e+01
5.880000000000000000e+02 4.292587960381699475e+01
5.890000000000000000e+02 2.660987855631579180e+01
5.900000000000000000e+02 4.379969001866570721e+01
5.910000000000000000e+02 5.452968101016426061e+01
5.920000000000000000e+02 3.063319175897171576e+01
5.930000000000000000e+02 1.364241149730400871e+01
5.940000000000000000e+02 3.732302514001251126e+01
5.950000000000000000e+02 3.471903710640943075e+01
5.960000000000000000e+02 3.548799610326879517e+00
5.970000000000000000e+02 4.335337274423940457e+00
5.980000000000000000e+02 2.561148527691405263e+01
5.990000000000000000e+02 2.956475907902877864e+01
6.000000000000000000e+02 1.715790325451129306e+01
6.010000000000000000e+02 1.639948566687423082e+01
6.020000000000000000e+02 2.966049106202095587e+01
6.030000000000000000e+02 2.966240162414348092e+01
6.040000000000000000e+02 9.266839116780802854e+00
6.050000000000000000e+02 1.988372113047083900e+01
6.060000000000000000e+02 4.672908102883719828e+00
6.070000000000000000e+02 1.276750275171140814e+01
6.080000000000000000e+02 4.254021920970810555e+00
6.090000000000000000e+02 9.210613557560705544e+00
6.100000000000000000e+02 7.225561445343218203e+00
6.110000000000000000e+02 6.117389779091397806e+00
6.120000000000000000e+02 5.188366509023728534e-01
6.130000000000000000e+02 3.338311719411032552e+00
6.140000000000000000e+02 1.528518164657464373e+00
6.150000000000000000e+02 2.101145923667412596e+00
6.160000000000000000e+02 9.506353627955180130e+00
6.170000000000000000e+02 3.054776904169220764e+00
6.180000000000000000e+02 7.578887718730617173e+00
6.190000000000000000e+02 1.882261703649950135e+01
6.200000000000000000e+02 1.508970318813502232e+01
6.210000000000000000e+02 1.928949206596127564e+00
6.220000000000000000e+02 6.045506150560037817e+00
6.230000000000000000e+02 1.990944329807081914e+01
6.240000000000000000e+02 1.794667136071355173e+01
6.250000000000000000e+02 1.359155884280379034e+01
6.260000000000000000e+02 3.464338866832636921e+00
6.270000000000000000e+02 7.320036941713423673e+00
6.280000000000000000e+02 9.370837241443803478e+00
6.290000000000000000e+02 1.534374191454054781e+01
6.300000000000000000e+02 3.825777120721852054e+00
6.310000000000000000e+02 2.862834621655263145e+00
6.320000000000000000e+02 1.041017815183569084e+01
6.330000000000000000e+02 1.530136421281891934e+01
6.340000000000000000e+02 1.520483426052686760e+01
6.350000000000000000e+02 2.522943062850025342e+01
6.360000000000000000e+02 1.500898479153730491e+01
6.370000000000000000e+02 2.089811025513375853e+01
6.380000000000000000e+02 2.650509844223195088e+01
6.390000000000000000e+02 1.706653525508074054e+01
6.400000000000000000e+02 2.500883970752960295e+01
6.410000000000000000e+02 3.158948167185231881e+01
6.420000000000000000e+02 3.052800556615512306e+01
6.430000000000000000e+02 3.787749463804175321e+01
6.440000000000000000e+02 5.530358973242028497e+01
6.450000000000000000e+02 6.637569236001669992e+01
6.460000000000000000e+02 6.329653896287066317e+01
6.470000000000000000e+02 9.589089975938524901e+01
6.480000000000000000e+02 1.127668605350475559e+02
6.490000000000000000e+02 1.283084594275043173e+02
6.500000000000000000e+02 1.481750704418165299e+02
6.510000000000000000e+02 1.694104795520527489e+02
6.520000000000000000e+02 1.946823359054133107e+02
6.530000000000000000e+02 2.035627332918475929e+02
6.540000000000000000e+02 2.362073850031113977e+02
6.550000000000000000e+02 2.743905638041899238e+02
6.560000000000000000e+02 3.102817048122795427e+02
6.570000000000000000e+02 3.516984538684932318e+02
6.580000000000000000e+02 4.116106911014325078e+02
6.590000000000000000e+02 4.732802404480409564e+02
6.600000000000000000e+02 5.320066864758334759e+02
6.610000000000000000e+02 5.922945618336424332e+02
6.620000000000000000e+02 6.722699882389583763e+02
6.630000000000000000e+02 7.757399331051619811e+02
6.640000000000000000e+02 8.846352744036464628e+02
6.650000000000000000e+02 9.988111259074826194e+02
6.660000000000000000e+02 1.119332073428745161e+03
6.670000000000000000e+02 1.276906591163653502e+03
6.680000000000000000e+02 1.471933538365817640e+03
6.690000000000000000e+02 1.697945755859778274e+03
6.700000000000000000e+02 1.959460916407382001e+03
6.710000000000000000e+02 2.259436714226462300e+03
6.720000000000000000e+02 2.559470485376481975e+03
6.730000000000000000e+02 2.831593445550718570e+03
6.740000000000000000e+02 2.984211864786392653e+03
6.750000000000000000e+02 2.959457801286037011e+03
6.760000000000000000e+02 2.769352787181074291e+03
6.770000000000000000e+02 2.417376197261993184e+03
6.780000000000000000e+02 1.986105298278386272e+03
6.790000000000000000e+02 1.584314741132523523e+03
6.800000000000000000e+02 1.230189252644690441e+03
6.810000000000000000e+02 9.359175433727525615e+02
6.820000000000000000e+02 7.297946847781049655e+02
6.830000000000000000e+02 6.049748701721649695e+02
6.840000000000000000e+02 4.907997482265104736e+02
6.850000000000000000e+02 4.090997907299878307e+02
6.860000000000000000e+02 3.430065523957679261e+02
6.870000000000000000e+02 2.811306234598626475e+02
6.880000000000000000e+02 2.368474787225210036e+02
6.890000000000000000e+02 2.165990779298895745e+02
6.900000000000000000e+02 2.031279497199747084e+02
6.910000000000000000e+02 1.734400268353398928e+02
6.920000000000000000e+02 1.558894933831150809e+02
6.930000000000000000e+02 1.598712709188969257e+02
6.940000000000000000e+02 1.592646496577486062e+02
6.950000000000000000e+02 1.245526024268838512e+02
6.960000000000000000e+02 9.135233876166886091e+01
6.970000000000000000e+02 6.976879131093163267e+01
6.980000000000000000e+02 5.888014938394537268e+01
6.990000000000000000e+02 4.515224934038629101e+01
7.000000000000000000e+02 2.913450502800246866e+01
7.010000000000000000e+02 2.653501142916406863e+01
7.020000000000000000e+02 2.107576594897324185e+01
7.030000000000000000e+02 1.614462718315691347e+01
7.040000000000000000e+02 1.218301415681385080e+01
7.050000000000000000e+02 1.150169049781822217e+00
7.060000000000000000e+02 5.588121836340965487e+00
7.070000000000000000e+02 7.387222141879091097e+00
7.080000000000000000e+02 3.287041613231218129e+00
7.090000000000000000e+02 1.543909885500958268e+01
7.100000000000000000e+02 1.223003420078787684e+01
7.110000000000000000e+02 1.069815940481152516e+01
7.120000000000000000e+02 7.491101754408264313e+00
7.130000000000000000e+02 3.337710890479237413e+00
7.140000000000000000e+02 1.556875798423919122e+01
7.150000000000000000e+02 3.596294181290251579e+00
7.160000000000000000e+02 1.841055248496161090e+00
7.170000000000000000e+02 3.164622441310754652e+00
7.180000000000000000e+02 4.423387384567462277e+00
7.190000000000000000e+02 7.790300784069580375e-01
7.200000000000000000e+02 2.259760613287027375e-01
7.210000000000000000e+02 9.854364818502469703e+00
7.220000000000000000e+02 1.013285250280021010e+01
7.230000000000000000e+02 7.222051515868051830e+00
7.240000000000000000e+02 1.179431425637859476e+01
7.250000000000000000e+02 2.265313213441209683e+01
7.260000000000000000e+02 2.936530952499480307e+01
7.270000000000000000e+02 2.339195902924686621e+01
7.280000000000000000e+02 1.220681029661887074e+01
7.290000000000000000e+02 9.121556487035872962e+00
7.300000000000000000e+02 1.672097547396793260e+01
7.310000000000000000e+02 1.155375021157426474e+01
7.320000000000000000e+02 3.127125706285071693e+00
7.330000000000000000e+02 8.407786957062970856e+00
7.340000000000000000e+02 1.499942775197015798e+01
7.350000000000000000e+02 2.363188937564837033e+01
7.360000000000000000e+02 3.422363187927825123e+01
7.370000000000000000e+02 5.392400306926598574e+01
7.380000000000000000e+02 8.235327006222810553e+01
7.390000000000000000e+02 1.031736581829496089e+02
7.400000000000000000e+02 1.066791769390295173e+02
7.410000000000000000e+02 1.339469350964532737e+02
7.420000000000000000e+02 1.574204854594482299e+02
7.430000000000000000e+02 1.415173223143920609e+02
7.440000000000000000e+02 1.150089843600911905e+02
7.450000000000000000e+02 1.113860583074050936e+02
7.460000000000000000e+02 1.124635187059310795e+02
7.470000000000000000e+02 7.871940248496166248e+01
7.480000000000000000e+02 9.908494980087125725e+01
7.490000000000000000e+02 1.006011072412361926e+02
7.500000000000000000e+02 1.020830524953328506e+02
7.510000000000000000e+02 1.203355029247041159e+02
7.520000000000000000e+02 1.270967732835510873e+02
7.530000000000000000e+02 9.986796339763553476e+01
7.540000000000000000e+02 8.477799363410095168e+01
7.550000000000000000e+02 8.302908828251401019e+01
7.560000000000000000e+02 5.418025824102934251e+01
7.570000000000000000e+02 2.341001352623975507e+01
7.580000000000000000e+02 1.626019949388093977e+01
7.590000000000000000e+02 1.812653136278784061e+01
7.600000000000000000e+02 9.537983865614237944e-01
7.610000000000000000e+02 1.424405083592615462e+01
7.620000000000000000e+02 5.237742278158076914e+00
7.630000000000000000e+02 1.951146424305249205e+00
7.640000000000000000e+02 2.212495519601801242e+00
7.650000000000000000e+02 1.786144914333280154e+00
7.660000000000000000e+02 7.343814681252668564e+00
7.670000000000000000e+02 2.671959396598079906e+00
7.680000000000000000e+02 1.404724656502942537e+00
7.690000000000000000e+02 7.958372206553086414e+00
7.700000000000000000e+02 1.217674174030284462e+01
7.710000000000000000e+02 1.324608701721622950e+01
7.720000000000000000e+02 1.525766986312736151e+01
7.730000000000000000e+02 9.826931138767978524e+00
7.740000000000000000e+02 2.190961998962846735e+01
7.750000000000000000e+02 2.554956223812487437e+01
7.760000000000000000e+02 2.549623797967228711e+01
7.770000000000000000e+02 1.764058105787197661e+01
7.780000000000000000e+02 7.489702538892361261e+00
7.790000000000000000e+02 1.149210825596359342e+01
7.800000000000000000e+02 1.479665198091672629e+01
7.810000000000000000e+02 4.563264052893281075e+00
7.820000000000000000e+02 3.311940968885782155e+00
7.830000000000000000e+02 1.211165981850308171e+01
7.840000000000000000e+02 1.465840320680393205e+01
7.850000000000000000e+02 2.954009737551596793e+00
7.860000000000000000e+02 2.334593151213392836e+00
7.870000000000000000e+02 5.927278636175569382e+00
7.880000000000000000e+02 1.602527051430977068e+01
7.890000000000000000e+02 2.187645222153071956e+01
7.900000000000000000e+02 2.104546446795278314e+01
7.910000000000000000e+02 2.563962802364101989e+01
7.920000000000000000e+02 3.383307636797360374e+01
7.930000000000000000e+02 2.512616424393281278e+01
7.940000000000000000e+02 3.110165781833259047e+01
7.950000000000000000e+02 3.924230399502180688e+01
7.960000000000000000e+02 3.536343065546564191e+01
7.970000000000000000e+02 4.158325072998792393e+01
7.980000000000000000e+02 4.761111271727844496e+01
7.990000000000000000e+02 3.880270023646527022e+01
8.000000000000000000e+02 3.411131987971761959e+01
8.010000000000000000e+02 2.052267460900207752e+01
8.020000000000000000e+02 1.941047040862891393e+01
8.030000000000000000e+02 1.759284895042524965e+01
8.040000000000000000e+02 2.644935635967706489e+01
8.050000000000000000e+02 3.190134407799168059e+01
8.060000000000000000e+02 1.995848316116997623e+01
8.070000000000000000e+02 1.628767013690118048e+01
8.080000000000000000e+02 8.070953152458269386e+00
8.090000000000000000e+02 5.230899081518347593e+00
8.100000000000000000e+02 2.023443221115973856e+00
8.110000000000000000e+02 7.310885098527258208e+00
8.120000000000000000e+02 1.277081566376286403e+01
8.130000000000000000e+02 1.018999072930906280e+01
8.140000000000000000e+02 1.665903843425947173e+01
8.150000000000000000e+02 2.908048778884200658e+00
8.160000000000000000e+02 1.213629797759837992e+01
8.170000000000000000e+02 3.035971792202431274e+01
8.180000000000000000e+02 2.412357716863646218e+01
8.190000000000000000e+02 1.535179810620236474e+01
8.200000000000000000e+02 2.751121678763993472e+01
8.210000000000000000e+02 2.465982077992122612e+01
8.220000000000000000e+02 3.333829355320487764e+01
8.230000000000000000e+02 4.098303408544182247e+01
8.240000000000000000e+02 2.955089465256186543e+01
8.250000000000000000e+02 3.290903604231471746e+01
8.260000000000000000e+02 4.666759221070114450e+01
8.270000000000000000e+02 4.557885632856248037e+01
8.280000000000000000e+02 3.797920926986107304e+01
8.290000000000000000e+02 4.799609921800495727e+01
8.300000000000000000e+02 6.626046724123614240e+01
8.310000000000000000e+02 3.463217086496563013e+01
8.320000000000000000e+02 1.338315942128198799e+01
8.330000000000000000e+02 1.309729637627042109e+01
8.340000000000000000e+02 9.700107782202861628e+00
8.350000000000000000e+02 1.872897081933235341e+01
8.360000000000000000e+02 3.916227161169886273e+01
8.370000000000000000e+02 2.314664594482482585e+01
8.380000000000000000e+02 1.923959475005178632e+01
8.390000000000000000e+02 1.632023935697987227e+01
8.400000000000000000e+02 2.695885516382972469e+00
8.410000000000000000e+02 1.701340875544596676e+00
8.420000000000000000e+02 1.652417144783237291e+01
8.430000000000000000e+02 1.308099715411746189e+01
8.440000000000000000e+02 2.054212690520640194e+01
8.450000000000000000e+02 2.049873325451154216e+01
8.460000000000000000e+02 1.623942742999373934e+01
8.470000000000000000e+02 1.211954828458826405e+01
8.480000000000000000e+02 4.815401479361286263e+00
8.490000000000000000e+02 2.502777192906031622e+00
8.500000000000000000e+02 1.437016229620407692e+01
8.510000000000000000e+02 1.646700494918253987e+00
8.520000000000000000e+02 4.282472911221743672e+00
8.530000000000000000e+02 9.368642333125878352e+00
8.540000000000000000e+02 1.676443884256359951e+01
8.550000000000000000e+02 3.121509719352834722e+01
8.560000000000000000e+02 4.520581472723501548e+01
8.570000000000000000e+02 4.827334839900438368e+01
8.580000000000000000e+02 5.707503699025097887e+01
8.590000000000000000e+02 5.205384194772887696e+01
8.600000000000000000e+02 3.827983056822922237e+01
8.610000000000000000e+02 1.603873299730373247e+01
8.620000000000000000e+02 1.198738643849784502e+01
8.630000000000000000e+02 3.044707348610511133e+01
8.640000000000000000e+02 3.809631875544493340e+01
8.650000000000000000e+02 2.808900423148737246e+01
8.660000000000000000e+02 3.657636034840300709e+01
8.670000000000000000e+02 3.795003729101850354e+01
8.680000000000000000e+02 4.088058034225257131e+01
8.690000000000000000e+02 3.820976271935286661e+01
8.700000000000000000e+02 2.876252383322966821e+01
8.710000000000000000e+02 3.092741795270671901e+01
8.720000000000000000e+02 5.360222184609004614e+01
8.730000000000000000e+02 4.057430467952662667e+01
8.740000000000000000e+02 1.029171730512305061e+01
8.750000000000000000e+02 1.185675044679491563e+01
8.760000000000000000e+02 1.774536916822244592e+01
8.770000000000000000e+02 2.235426026135708000e+01
8.780000000000000000e+02 3.060520157436209132e+01
8.790000000000000000e+02 2.383396654013736082e+01
8.800000000000000000e+02 5.427531058287350163e+00
8.810000000000000000e+02 7.211662651524413548e+00
8.820000000000000000e+02 6.219292482265040611e+00
8.830000000000000000e+02 1.215230552053054147e+01
8.840000000000000000e+02 2.628264116158457142e+01
8.850000000000000000e+02 3.307870047707955052e+01
8.860000000000000000e+02 2.683485166113646159e+01
8.870000000000000000e+02 2.383904708151824892e+01
8.880000000000000000e+02 9.613625987139439388e+00
8.890000000000000000e+02 7.240395187474330640e+00
8.900000000000000000e+02 3.482125931549280740e+00
8.910000000000000000e+02 1.097636952209107974e+01
8.920000000000000000e+02 1.982392838863500373e+01
8.930000000000000000e+02 2.282978579962678722e+01
8.940000000000000000e+02 1.674265258660014055e+01
8.950000000000000000e+02 1.935648279817504402e+01
8.960000000000000000e+02 9.139055176726898821e+00
8.970000000000000000e+02 1.165309627255754066e+01
8.980000000000000000e+02 6.217376596141990674e+00
8.990000000000000000e+02 8.558581289358810906e+00
9.000000000000000000e+02 1.853503700062218229e+01
9.010000000000000000e+02 2.145972436216553447e+01
9.020000000000000000e+02 1.726004467122998065e+01
9.030000000000000000e+02 4.880830521053721505e+00
9.040000000000000000e+02 2.828911615225113962e+01
9.050000000000000000e+02 2.669014297448631012e+01
9.060000000000000000e+02 2.069742757519181353e+01
9.070000000000000000e+02 2.010148265505083032e+01
9.080000000000000000e+02 2.537258672267208937e+01
9.090000000000000000e+02 2.484114584052101193e+01
9.100000000000000000e+02 2.946501514623739659e+00
9.110000000000000000e+02 7.244655392035385333e+00
9.120000000000000000e+02 1.686332949398601500e+01
9.130000000000000000e+02 1.566981753578102854e+01
9.140000000000000000e+02 1.799224480398238057e+01
9.150000000000000000e+02 3.141569356283673997e+01
9.160000000000000000e+02 3.930656615639910711e+01
9.170000000000000000e+02 3.775439551337894528e+01
9.180000000000000000e+02 5.428045035255112793e+01
9.190000000000000000e+02 7.884102995021815730e+01
9.200000000000000000e+02 6.922307954366286253e+01
9.210000000000000000e+02 7.067811673579461740e+01
9.220000000000000000e+02 9.184724559220168771e+01
9.230000000000000000e+02 1.107442207840700092e+02
9.240000000000000000e+02 1.206096370877415040e+02
9.250000000000000000e+02 1.350456477494305148e+02
9.260000000000000000e+02 1.606073411118028957e+02
9.270000000000000000e+02 1.734008198091678139e+02
9.280000000000000000e+02 1.931310144990659126e+02
9.290000000000000000e+02 2.153567943995026610e+02
9.300000000000000000e+02 2.396923635137936230e+02
9.310000000000000000e+02 2.606479731176103201e+02
9.320000000000000000e+02 2.587728214685752164e+02
9.330000000000000000e+02 2.376559464841317322e+02
9.340000000000000000e+02 2.267729165733248351e+02
9.350000000000000000e+02 1.851482203277323890e+02
9.360000000000000000e+02 1.602959003318808016e+02
9.370000000000000000e+02 1.417414463596759333e+02
9.380000000000000000e+02 1.082322825217746498e+02
9.390000000000000000e+02 7.837574261563945299e+01
9.400000000000000000e+02 5.868430496370010729e+01
9.410000000000000000e+02 4.468907196598924969e+01
9.420000000000000000e+02 4.885337713752337407e+01
9.430000000000000000e+02 4.617200512134405699e+01
9.440000000000000000e+02 3.784380882828688897e+01
9.450000000000000000e+02 3.729514286040235760e+01
9.460000000000000000e+02 4.383701392034853228e+01
9.470000000000000000e+02 6.041260266279596181e+01
9.480000000000000000e+02 6.870248900643019851e+01
9.490000000000000000e+02 6.364941818709814214e+01
9.500000000000000000e+02 6.774567802323127808e+01
9.510000000000000000e+02 4.195422593652743615e+01
9.520000000000000000e+02 1.568365081725784371e+01
9.530000000000000000e+02 1.562433054967861779e+01
9.540000000000000000e+02 2.653328786351384139e+01
9.550000000000000000e+02 2.513042530180466372e+01
9.560000000000000000e+02 2.394205588052282252e+01
9.570000000000000000e+02 2.699571722671644380e+01
9.580000000000000000e+02 1.583384381663563722e+01
9.590000000000000000e+02 1.210335574984443419e+01
9.600000000000000000e+02 1.843839821406345791e+01
9.610000000000000000e+02 8.788587522091042104e+00
9.620000000000000000e+02 7.381932033145833572e+00
9.630000000000000000e+02 1.625500275461515098e+00
9.640000000000000000e+02 1.227791157196190674e+01
9.650000000000000000e+02 7.866879410080898971e+00
9.660000000000000000e+02 3.998231230449905471e+00
9.670000000000000000e+02 1.634943594773973530e+01
9.680000000000000000e+02 1.039309455092291756e+01
9.690000000000000000e+02 2.074779813316741084e+01
9.700000000000000000e+02 4.188229284114557416e+00
9.710000000000000000e+02 1.625122067413362004e+01
9.720000000000000000e+02 4.218873681808722864e+01
9.730000000000000000e+02 5.625094709871408583e+01
9.740000000000000000e+02 4.572455281269495231e+01
9.750000000000000000e+02 2.996537956856100138e+00
9.760000000000000000e+02 3.602463398050191046e+01
9.770000000000000000e+02 3.900356681186490704e+01
9.780000000000000000e+02 6.622201319850765877e+00
9.790000000000000000e+02 8.071727591785716527e+00
9.800000000000000000e+02 2.023366181705046074e+01
9.810000000000000000e+02 1.859964303878851055e+01
9.820000000000000000e+02 1.976496032565833971e+01
9.830000000000000000e+02 3.197511157021372696e+01
9.840000000000000000e+02 2.742048664592341822e+01
9.850000000000000000e+02 4.862204953121270989e+00
9.860000000000000000e+02 2.573127303671515520e+01
9.870000000000000000e+02 6.261927884879934680e+00
9.880000000000000000e+02 1.323881288114358767e+01
9.890000000000000000e+02 3.342786536195899316e+01
9.900000000000000000e+02 2.462506699440065461e+01
9.910000000000000000e+02 7.293794909768659407e-01
9.920000000000000000e+02 2.419450753421291012e+00
9.930000000000000000e+02 1.485942056627258090e+01
9.940000000000000000e+02 6.273459474590477924e+00
9.950000000000000000e+02 1.638542385732042472e+00
9.960000000000000000e+02 1.235861464219049921e+01
9.970000000000000000e+02 8.935662992532591886e+00
9.980000000000000000e+02 8.205649846536737790e-01
9.990000000000000000e+02 6.269236009126971432e+00
1.000000000000000000e+03 1.156299776026539128e+01
1.001000000000000000e+03 1.254512917012450046e+01
1.002000000000000000e+03 2.431590887966754977e+01
1.003000000000000000e+03 2.411105016597530337e+01
1.004000000000000000e+03 3.373761682572587972e+01
1.005000000000000000e+03 4.972216566390044790e+01
1.006000000000000000e+03 3.200119240663942577e+01
1.007000000000000000e+03 2.079226929460512707e+01
1.008000000000000000e+03 2.384602356846431803e+01
1.009000000000000000e+03 1.373727340248922957e+01
1.010000000000000000e+03 3.137669775933662919e+01
1.011000000000000000e+03 4.795320170124479375e+01
1.012000000000000000e+03 4.422110786307054298e+01
1.013000000000000000e+03 7.808342076763499051e+01
1.014000000000000000e+03 9.010344939834030242e+01
1.015000000000000000e+03 9.577589362318873611e+01
1.016000000000000000e+03 1.111004875518668769e+02
1.017000000000000000e+03 1.285933170124486367e+02
1.018000000000000000e+03 1.429192294605807660e+02
1.019000000000000000e+03 1.522615594202897569e+02
1.020000000000000000e+03 1.529146867219919557e+02
1.021000000000000000e+03 1.768347848547707883e+02
1.022000000000000000e+03 2.053068024896272448e+02
1.023000000000000000e+03 2.295630173913040153e+02
1.024000000000000000e+03 2.414569219917011651e+02
1.025000000000000000e+03 2.651361331950208751e+02
1.026000000000000000e+03 2.979878045643166047e+02
1.027000000000000000e+03 3.283744354037248740e+02
1.028000000000000000e+03 3.842551317427376603e+02
1.029000000000000000e+03 4.145023495850633140e+02
1.030000000000000000e+03 4.399167221991748988e+02
1.031000000000000000e+03 4.915237826086956261e+02
1.032000000000000000e+03 4.530546410788367666e+02
1.033000000000000000e+03 3.716050904564249890e+02
1.034000000000000000e+03 2.871678742738662891e+02
1.035000000000000000e+03 2.090769078838194730e+02
1.036000000000000000e+03 1.611678904564310244e+02
1.037000000000000000e+03 1.508900477178424921e+02
1.038000000000000000e+03 1.211514271784249672e+02
1.039000000000000000e+03 8.830495487551839062e+01
1.040000000000000000e+03 7.493514161825621045e+01
1.041000000000000000e+03 4.054267605809425845e+01
1.042000000000000000e+03 3.787972809128606855e+01
1.043000000000000000e+03 4.220779211618246052e+01
1.044000000000000000e+03 3.811071373444001864e+01
1.045000000000000000e+03 2.637273271784345496e+01
1.046000000000000000e+03 1.352073624273975483e+01
1.047000000000000000e+03 5.299347109958619484e+01
1.048000000000000000e+03 5.679797515527913276e+01
1.049000000000000000e+03 6.770805244813281831e+01
1.050000000000000000e+03 8.644783419087247012e+01
1.051000000000000000e+03 9.206240261410788150e+01
1.052000000000000000e+03 1.024075110766040098e+02
1.053000000000000000e+03 1.176669570539424257e+02
1.054000000000000000e+03 1.087349877593331655e+02
1.055000000000000000e+03 1.076624324688772845e+02
1.056000000000000000e+03 1.754422739130444882e+02
1.057000000000000000e+03 1.973772937759358683e+02
1.058000000000000000e+03 2.325458340248910361e+02
1.059000000000000000e+03 2.968333307053927115e+02
1.060000000000000000e+03 3.336338821946177404e+02
1.061000000000000000e+03 3.555915412863076881e+02
1.062000000000000000e+03 3.569145107883825858e+02
1.063000000000000000e+03 3.322292917012445059e+02
1.064000000000000000e+03 2.953530495850595798e+02
1.065000000000000000e+03 2.551599136929493454e+02
1.066000000000000000e+03 2.211641282157679314e+02
1.067000000000000000e+03 2.203449755186721006e+02
1.068000000000000000e+03 2.042436020746870611e+02
1.069000000000000000e+03 2.021733236514521082e+02
1.070000000000000000e+03 2.385276232365155806e+02
1.071000000000000000e+03 2.310288493775906318e+02
1.072000000000000000e+03 2.207041439834018206e+02
1.073000000000000000e+03 2.017580493775932666e+02
1.074000000000000000e+03 1.377867331950177459e+02
1.075000000000000000e+03 1.005792302904557829e+02
1.076000000000000000e+03 8.830288821576806413e+01
1.077000000000000000e+03 7.728893407867454357e+01
1.078000000000000000e+03 5.671202672198931793e+01
1.079000000000000000e+03 3.030109045643319376e+01
1.080000000000000000e+03 2.724842493775928887e+01
1.081000000000000000e+03 1.617749913043317989e+01
1.082000000000000000e+03 2.204350003734253605e+01
1.083000000000000000e+03 4.153007373443946904e+01
1.084000000000000000e+03 2.964230182572501349e+01
1.085000000000000000e+03 7.119813962734864887e+00
1.086000000000000000e+03 3.227228705394208674e+01
1.087000000000000000e+03 2.337939354771778611e+01
1.088000000000000000e+03 2.151073024896304986e+01
1.089000000000000000e+03 3.019114530020676312e+01
1.090000000000000000e+03 1.175567427385936980e+01
1.091000000000000000e+03 1.153344278008370027e+00
1.092000000000000000e+03 1.689339153526857373e+01
1.093000000000000000e+03 2.864040211618279841e+01
1.094000000000000000e+03 3.260271493775974250e+01
1.095000000000000000e+03 4.595608869294582632e+01
1.096000000000000000e+03 2.525487529045783575e+01
1.097000000000000000e+03 4.366438292531181986e+01
1.098000000000000000e+03 1.083545124481205946e+01
1.099000000000000000e+03 2.441191697093606727e+00
1.100000000000000000e+03 2.962915547717740594e+01
1.101000000000000000e+03 1.730459906224012911e+01
1.102000000000000000e+03 2.095666811203269919e+00
1.103000000000000000e+03 6.858796493775063396e-01
1.104000000000000000e+03 2.517902037344373234e+00
1.105000000000000000e+03 6.721270410789248473e+00
1.106000000000000000e+03 2.488694101449263840e+01
1.107000000000000000e+03 9.536567008298884929e+00
1.108000000000000000e+03 3.462428643153617003e+01
1.109000000000000000e+03 5.351966170124590860e+01
1.110000000000000000e+03 4.375326659751171832e+01
1.111000000000000000e+03 1.893969573236500992e+01
1.112000000000000000e+03 4.467790035269544546e+00
1.113000000000000000e+03 6.411197300828849421e+00
1.114000000000000000e+03 2.413112757763882499e+01
1.115000000000000000e+03 3.210379842323467869e+01
1.116000000000000000e+03 2.407591228215756107e+00
1.117000000000000000e+03 6.204700900415385689e+00
1.118000000000000000e+03 4.426727385093061073e+00
1.119000000000000000e+03 3.292335064315692250e+01
1.120000000000000000e+03 3.393767273859042177e+01
1.121000000000000000e+03 3.074579408713686135e+01
1.122000000000000000e+03 2.840240726141059824e+01
1.123000000000000000e+03 3.349742253111929102e+01
1.124000000000000000e+03 2.606061170124617021e+01
1.125000000000000000e+03 1.191685473029084719e+01
1.126000000000000000e+03 2.228842073443690808e+01
1.127000000000000000e+03 9.072038817427198865e+00
1.128000000000000000e+03 4.096000999999986014e+00
1.129000000000000000e+03 1.279242767634866063e+01
1.130000000000000000e+03 1.965135778008289869e+00
1.131000000000000000e+03 1.219084174273810994e+01
1.132000000000000000e+03 8.271143871369357470e+00
1.133000000000000000e+03 1.156795273858858053e+01
1.134000000000000000e+03 4.748638282157949142e+00
1.135000000000000000e+03 9.690191335403760320e+00
1.136000000000000000e+03 1.685168620331882749e+01
1.137000000000000000e+03 5.998018873442834575e+00
1.138000000000000000e+03 4.977614124480505886e+00
1.139000000000000000e+03 2.038399440993774547e+01
1.140000000000000000e+03 1.071612744398305850e+01
1.141000000000000000e+03 1.076703615352630372e+01
1.142000000000000000e+03 2.531660298755184257e+01
1.143000000000000000e+03 8.675437080743414242e+00
1.144000000000000000e+03 8.991112678420936533e+00
1.145000000000000000e+03 2.284104290456428643e+01
1.146000000000000000e+03 2.034569253112016085e+01
1.147000000000000000e+03 9.355993550725621333e+00
1.148000000000000000e+03 7.778271414936783756e+00
1.149000000000000000e+03 4.721265008298792054e+01
1.150000000000000000e+03 4.572154016597421133e+01
1.151000000000000000e+03 1.568914608695418522e+01
1.152000000000000000e+03 4.844141273858910779e+01
1.153000000000000000e+03 3.458007041493672062e+01
1.154000000000000000e+03 2.725465319502101380e+01
1.155000000000000000e+03 3.056908962655605322e+01
1.156000000000000000e+03 1.484651637344324016e+01
1.157000000000000000e+03 1.566642523651835361e+01
1.158000000000000000e+03 5.061807402489426266e+01
1.159000000000000000e+03 5.409263398340288376e+01
1.160000000000000000e+03 2.553968136929324118e+01
1.161000000000000000e+03 1.380635300829923295e+01
1.162000000000000000e+03 2.969558697095148858e+00
1.163000000000000000e+03 2.353460479253170234e+01
1.164000000000000000e+03 2.359634463768009027e+01
1.165000000000000000e+03 2.792159663900349997e+01
1.166000000000000000e+03 4.159204410788379391e+01
1.167000000000000000e+03 2.726325033194854086e+01
1.168000000000000000e+03 2.264442919254869224e+01
1.169000000000000000e+03 4.063447325726154702e+01
1.170000000000000000e+03 3.373664894190852692e+01
1.171000000000000000e+03 2.898290248962603854e+01
1.172000000000000000e+03 2.717051826086930788e+01
1.173000000000000000e+03 3.747893058091300134e+01
1.174000000000000000e+03 4.840109730290515699e+01
1.175000000000000000e+03 5.204138614107899485e+01
1.176000000000000000e+03 1.737800484472112927e+01
1.177000000000000000e+03 1.548304650000081040e+01
1.178000000000000000e+03 2.302639327800840263e+01
1.179000000000000000e+03 2.841954230290426864e+01
1.180000000000000000e+03 1.837416372463747294e+01
1.181000000000000000e+03 1.756627406639503874e+01
1.182000000000000000e+03 4.094206734440182061e+01
1.183000000000000000e+03 9.169451477178061083e+00
1.184000000000000000e+03 3.728582580912957667e+01
1.185000000000000000e+03 4.571420620331948470e+01
1.186000000000000000e+03 3.220479423236571392e+01
1.187000000000000000e+03 2.657396323651447290e+01
1.188000000000000000e+03 1.895596533194947497e+01
1.189000000000000000e+03 1.254032995850652554e+01
1.190000000000000000e+03 1.705756273858916927e+01
1.191000000000000000e+03 1.981947767634851587e+01
1.192000000000000000e+03 1.629107863070584727e+01
1.193000000000000000e+03 1.151867247302923580e+01
1.194000000000000000e+03 9.340059037344660808e+00
1.195000000000000000e+03 1.303610074688772258e+01
1.196000000000000000e+03 6.779710547717644253e+00
1.197000000000000000e+03 1.449960782608691723e+01
1.198000000000000000e+03 2.761264120332019800e+01
1.199000000000000000e+03 3.183104966804986091e+01
1.200000000000000000e+03 2.577373597510404224e+01
1.201000000000000000e+03 1.618896467908871628e+01
1.202000000000000000e+03 3.325694419086882903e+01
1.203000000000000000e+03 3.947324213693005390e+01
1.204000000000000000e+03 3.352730543568464583e+01
1.205000000000000000e+03 4.064509887966871560e+01
1.206000000000000000e+03 4.361573614108007746e+01
1.207000000000000000e+03 3.560162813277991489e+01
1.208000000000000000e+03 4.589319946058136424e+01
1.209000000000000000e+03 5.687827322981411271e+01
1.210000000000000000e+03 6.364961973029078024e+01
1.211000000000000000e+03 4.101433632780037897e+01
1.212000000000000000e+03 1.775049002074533533e+01
1.213000000000000000e+03 3.701459263485300077e+00
1.214000000000000000e+03 2.573602576763536209e+00
1.215000000000000000e+03 3.102335340249264561e+01
1.216000000000000000e+03 3.870489780083141795e+01
1.217000000000000000e+03 2.191975385892147443e+01
1.218000000000000000e+03 2.868037834024928401e+01
1.219000000000000000e+03 4.055115846473097463e+01
1.220000000000000000e+03 4.670825417012441960e+01
1.221000000000000000e+03 4.800853582987546275e+01
1.222000000000000000e+03 5.432965373444073265e+01
1.223000000000000000e+03 6.749371278008233332e+01
1.224000000000000000e+03 6.759759834024907832e+01
1.225000000000000000e+03 6.362609095435665552e+01
1.226000000000000000e+03 3.959723714285798479e+01
1.227000000000000000e+03 5.087665506223861200e+01
1.228000000000000000e+03 6.291661280082987417e+01
1.229000000000000000e+03 3.969412157676134711e+01
1.230000000000000000e+03 2.665402202898508932e+01
1.231000000000000000e+03 3.922316348547698084e+01
1.232000000000000000e+03 3.913691576763449831e+01
1.233000000000000000e+03 3.553240456431627337e+01
1.234000000000000000e+03 4.493888585062268248e+01
1.235000000000000000e+03 3.893195852697098047e+01
1.236000000000000000e+03 4.481383132780168665e+01
1.237000000000000000e+03 5.421394197095517598e+01
1.238000000000000000e+03 2.832784877846842875e+01
1.239000000000000000e+03 3.985873485477298317e+01
1.240000000000000000e+03 1.748556240249078542e+01
1.241000000000000000e+03 9.241621551866186834e+00
1.242000000000000000e+03 1.346068070539413597e+01
1.243000000000000000e+03 2.623043798755504241e+01
1.244000000000000000e+03 3.893790076763534813e+01
1.245000000000000000e+03 2.410937159751050984e+01
1.246000000000000000e+03 3.048078807453491734e+01
1.247000000000000000e+03 4.339151842323661867e+01
1.248000000000000000e+03 4.058958265560181644e+01
1.249000000000000000e+03 3.663106618257254610e+01
1.250000000000000000e+03 3.203677438923381970e+01
1.251000000000000000e+03 1.696489182572666010e+01
1.252000000000000000e+03 3.165380499999999842e+01
1.253000000000000000e+03 2.442974587136822961e+01
1.254000000000000000e+03 4.047365983402394107e+01
1.255000000000000000e+03 4.980969757764003703e+01
1.256000000000000000e+03 2.544334477178283294e+01
1.257000000000000000e+03 1.464647348547778094e+01
1.258000000000000000e+03 2.478704053941877206e+01
1.259000000000000000e+03 2.774882408713710902e+01
1.260000000000000000e+03 3.359137582987417403e+01
1.261000000000000000e+03 2.431813109958373076e+01
1.262000000000000000e+03 3.767396172199174487e+01
1.263000000000000000e+03 2.697604435684505475e+01
1.264000000000000000e+03 1.352417655601594326e+00
1.265000000000000000e+03 2.570320609958377389e+01
1.266000000000000000e+03 2.767235692946049497e+01
1.267000000000000000e+03 1.366503569358067693e+01
1.268000000000000000e+03 3.861757900415423439e+00
1.269000000000000000e+03 7.370409226140919756e+00
1.270000000000000000e+03 1.786109975103780556e+01
1.271000000000000000e+03 3.475162099585296716e+01
1.272000000000000000e+03 5.163072655601612837e+01
1.273000000000000000e+03 5.505178842323647359e+01
1.274000000000000000e+03 5.453138497925335315e+01
1.275000000000000000e+03 4.977817422360522670e+01
1.276000000000000000e+03 2.595829031120331365e+01
1.277000000000000000e+03 3.655544983402454307e+01
1.278000000000000000e+03 2.049141885892085568e+01
1.279000000000000000e+03 1.376654952282185462e+01
1.280000000000000000e+03 3.241587672199582215e+00
1.281000000000000000e+03 6.810275564317171515e+00
1.282000000000000000e+03 2.158093593362072404e+00
1.283000000000000000e+03 1.152253062240642123e+01
1.284000000000000000e+03 2.547628498964846955e+01
1.285000000000000000e+03 3.591385869294497724e+01
1.286000000000000000e+03 2.945857255186787071e+01
1.287000000000000000e+03 1.632533468879679006e+01
1.288000000000000000e+03 1.246728379502963691e+01
1.289000000000000000e+03 2.751820788380468397e+00
1.290000000000000000e+03 1.767557643153515912e+01
1.291000000000000000e+03 0.000000000000000000e+00
1.292000000000000000e+03 0.000000000000000000e+00
1.293000000000000000e+03 0.000000000000000000e+00
1.294000000000000000e+03 0.000000000000000000e+00
1.295000000000000000e+03 0.000000000000000000e+00
1.296000000000000000e+03 0.000000000000000000e+00
1.297000000000000000e+03 0.000000000000000000e+00
1.298000000000000000e+03 0.000000000000000000e+00
1.299000000000000000e+03 0.000000000000000000e+00
1.300000000000000000e+03 0.000000000000000000e+00
1.301000000000000000e+03 0.000000000000000000e+00
1.302000000000000000e+03 0.000000000000000000e+00
1.303000000000000000e+03 0.000000000000000000e+00
1.304000000000000000e+03 0.000000000000000000e+00
1.305000000000000000e+03 0.000000000000000000e+00
1.306000000000000000e+03 0.000000000000000000e+00
1.307000000000000000e+03 0.000000000000000000e+00
1.308000000000000000e+03 0.000000000000000000e+00
1.309000000000000000e+03 0.000000000000000000e+00
1.310000000000000000e+03 0.000000000000000000e+00
1.311000000000000000e+03 0.000000000000000000e+00
1.312000000000000000e+03 0.000000000000000000e+00
1.313000000000000000e+03 0.000000000000000000e+00
1.314000000000000000e+03 0.000000000000000000e+00
1.315000000000000000e+03 0.000000000000000000e+00
1.316000000000000000e+03 0.000000000000000000e+00
1.317000000000000000e+03 0.000000000000000000e+00
1.318000000000000000e+03 0.000000000000000000e+00
1.319000000000000000e+03 0.000000000000000000e+00
1.320000000000000000e+03 0.000000000000000000e+00
1.321000000000000000e+03 0.000000000000000000e+00
1.322000000000000000e+03 0.000000000000000000e+00
1.323000000000000000e+03 0.000000000000000000e+00
1.324000000000000000e+03 0.000000000000000000e+00
1.325000000000000000e+03 0.000000000000000000e+00
1.326000000000000000e+03 0.000000000000000000e+00
1.327000000000000000e+03 0.000000000000000000e+00
1.328000000000000000e+03 0.000000000000000000e+00
1.329000000000000000e+03 0.000000000000000000e+00
1.330000000000000000e+03 0.000000000000000000e+00
1.331000000000000000e+03 0.000000000000000000e+00
1.332000000000000000e+03 0.000000000000000000e+00
1.333000000000000000e+03 0.000000000000000000e+00
1.334000000000000000e+03 0.000000000000000000e+00
1.335000000000000000e+03 0.000000000000000000e+00
1.336000000000000000e+03 0.000000000000000000e+00
1.337000000000000000e+03 0.000000000000000000e+00
1.338000000000000000e+03 0.000000000000000000e+00
1.339000000000000000e+03 0.000000000000000000e+00
1.340000000000000000e+03 0.000000000000000000e+00
1.341000000000000000e+03 0.000000000000000000e+00
1.342000000000000000e+03 0.000000000000000000e+00
1.343000000000000000e+03 0.000000000000000000e+00
1.344000000000000000e+03 0.000000000000000000e+00
1.345000000000000000e+03 0.000000000000000000e+00
1.346000000000000000e+03 0.000000000000000000e+00
1.347000000000000000e+03 0.000000000000000000e+00
1.348000000000000000e+03 0.000000000000000000e+00
1.349000000000000000e+03 0.000000000000000000e+00
1.350000000000000000e+03 0.000000000000000000e+00
1.351000000000000000e+03 0.000000000000000000e+00
1.352000000000000000e+03 0.000000000000000000e+00
1.353000000000000000e+03 0.000000000000000000e+00
1.354000000000000000e+03 0.000000000000000000e+00
1.355000000000000000e+03 0.000000000000000000e+00
1.356000000000000000e+03 0.000000000000000000e+00
1.357000000000000000e+03 0.000000000000000000e+00
1.358000000000000000e+03 0.000000000000000000e+00
1.359000000000000000e+03 0.000000000000000000e+00
1.360000000000000000e+03 0.000000000000000000e+00
1.361000000000000000e+03 0.000000000000000000e+00
1.362000000000000000e+03 0.000000000000000000e+00
1.363000000000000000e+03 0.000000000000000000e+00
1.364000000000000000e+03 0.000000000000000000e+00
1.365000000000000000e+03 0.000000000000000000e+00
1.366000000000000000e+03 0.000000000000000000e+00
1.367000000000000000e+03 0.000000000000000000e+00
1.368000000000000000e+03 0.000000000000000000e+00
1.369000000000000000e+03 0.000000000000000000e+00
1.370000000000000000e+03 0.000000000000000000e+00
1.371000000000000000e+03 0.000000000000000000e+00
1.372000000000000000e+03 0.000000000000000000e+00
1.373000000000000000e+03 0.000000000000000000e+00
1.374000000000000000e+03 0.000000000000000000e+00
1.375000000000000000e+03 0.000000000000000000e+00
1.376000000000000000e+03 0.000000000000000000e+00
1.377000000000000000e+03 0.000000000000000000e+00
1.378000000000000000e+03 0.000000000000000000e+00
1.379000000000000000e+03 0.000000000000000000e+00
1.380000000000000000e+03 0.000000000000000000e+00
1.381000000000000000e+03 0.000000000000000000e+00
1.382000000000000000e+03 0.000000000000000000e+00
1.383000000000000000e+03 0.000000000000000000e+00
1.384000000000000000e+03 0.000000000000000000e+00
1.385000000000000000e+03 0.000000000000000000e+00
1.386000000000000000e+03 0.000000000000000000e+00
1.387000000000000000e+03 0.000000000000000000e+00
1.388000000000000000e+03 0.000000000000000000e+00
1.389000000000000000e+03 0.000000000000000000e+00
1.390000000000000000e+03 0.000000000000000000e+00
1.391000000000000000e+03 0.000000000000000000e+00
1.392000000000000000e+03 0.000000000000000000e+00
1.393000000000000000e+03 0.000000000000000000e+00
1.394000000000000000e+03 0.000000000000000000e+00
1.395000000000000000e+03 0.000000000000000000e+00
1.396000000000000000e+03 0.000000000000000000e+00
1.397000000000000000e+03 0.000000000000000000e+00
1.398000000000000000e+03 0.000000000000000000e+00
1.399000000000000000e+03 0.000000000000000000e+00
1.400000000000000000e+03 0.000000000000000000e+00
1.401000000000000000e+03 0.000000000000000000e+00
1.402000000000000000e+03 0.000000000000000000e+00
1.403000000000000000e+03 0.000000000000000000e+00
1.404000000000000000e+03 0.000000000000000000e+00
1.405000000000000000e+03 0.000000000000000000e+00
1.406000000000000000e+03 0.000000000000000000e+00
1.407000000000000000e+03 0.000000000000000000e+00
1.408000000000000000e+03 0.000000000000000000e+00
1.409000000000000000e+03 0.000000000000000000e+00
1.410000000000000000e+03 0.000000000000000000e+00
1.411000000000000000e+03 0.000000000000000000e+00
1.412000000000000000e+03 0.000000000000000000e+00
1.413000000000000000e+03 0.000000000000000000e+00
1.414000000000000000e+03 0.000000000000000000e+00
1.415000000000000000e+03 0.000000000000000000e+00
1.416000000000000000e+03 0.000000000000000000e+00
1.417000000000000000e+03 0.000000000000000000e+00
1.418000000000000000e+03 0.000000000000000000e+00
1.419000000000000000e+03 0.000000000000000000e+00
1.420000000000000000e+03 0.000000000000000000e+00
1.421000000000000000e+03 0.000000000000000000e+00
1.422000000000000000e+03 0.000000000000000000e+00
1.423000000000000000e+03 0.000000000000000000e+00
1.424000000000000000e+03 0.000000000000000000e+00
1.425000000000000000e+03 0.000000000000000000e+00
1.426000000000000000e+03 0.000000000000000000e+00
1.427000000000000000e+03 0.000000000000000000e+00
1.428000000000000000e+03 0.000000000000000000e+00
1.429000000000000000e+03 0.000000000000000000e+00
1.430000000000000000e+03 0.000000000000000000e+00
1.431000000000000000e+03 0.000000000000000000e+00
1.432000000000000000e+03 0.000000000000000000e+00
1.433000000000000000e+03 0.000000000000000000e+00
1.434000000000000000e+03 0.000000000000000000e+00
1.435000000000000000e+03 0.000000000000000000e+00
1.436000000000000000e+03 0.000000000000000000e+00
1.437000000000000000e+03 0.000000000000000000e+00
1.438000000000000000e+03 0.000000000000000000e+00
1.439000000000000000e+03 0.000000000000000000e+00
1.440000000000000000e+03 0.000000000000000000e+00
1.441000000000000000e+03 0.000000000000000000e+00
1.442000000000000000e+03 0.000000000000000000e+00
1.443000000000000000e+03 0.000000000000000000e+00
1.444000000000000000e+03 0.000000000000000000e+00
1.445000000000000000e+03 0.000000000000000000e+00
1.446000000000000000e+03 0.000000000000000000e+00
1.447000000000000000e+03 0.000000000000000000e+00
1.448000000000000000e+03 0.000000000000000000e+00
1.449000000000000000e+03 0.000000000000000000e+00
1.450000000000000000e+03 0.000000000000000000e+00
1.451000000000000000e+03 0.000000000000000000e+00
1.452000000000000000e+03 0.000000000000000000e+00
1.453000000000000000e+03 0.000000000000000000e+00
1.454000000000000000e+03 0.000000000000000000e+00
1.455000000000000000e+03 0.000000000000000000e+00
1.456000000000000000e+03 0.000000000000000000e+00
1.457000000000000000e+03 0.000000000000000000e+00
1.458000000000000000e+03 0.000000000000000000e+00
1.459000000000000000e+03 0.000000000000000000e+00
1.460000000000000000e+03 0.000000000000000000e+00
1.461000000000000000e+03 0.000000000000000000e+00
1.462000000000000000e+03 0.000000000000000000e+00
1.463000000000000000e+03 0.000000000000000000e+00
1.464000000000000000e+03 0.000000000000000000e+00
1.465000000000000000e+03 0.000000000000000000e+00
1.466000000000000000e+03 0.000000000000000000e+00
1.467000000000000000e+03 0.000000000000000000e+00
1.468000000000000000e+03 0.000000000000000000e+00
1.469000000000000000e+03 0.000000000000000000e+00
1.470000000000000000e+03 0.000000000000000000e+00
1.471000000000000000e+03 0.000000000000000000e+00
1.472000000000000000e+03 0.000000000000000000e+00
1.473000000000000000e+03 0.000000000000000000e+00
1.474000000000000000e+03 0.000000000000000000e+00
1.475000000000000000e+03 0.000000000000000000e+00
1.476000000000000000e+03 0.000000000000000000e+00
1.477000000000000000e+03 0.000000000000000000e+00
1.478000000000000000e+03 0.000000000000000000e+00
1.479000000000000000e+03 0.000000000000000000e+00
1.480000000000000000e+03 0.000000000000000000e+00
1.481000000000000000e+03 0.000000000000000000e+00
1.482000000000000000e+03 0.000000000000000000e+00
1.483000000000000000e+03 0.000000000000000000e+00
1.484000000000000000e+03 0.000000000000000000e+00
1.485000000000000000e+03 0.000000000000000000e+00
1.486000000000000000e+03 0.000000000000000000e+00
1.487000000000000000e+03 0.000000000000000000e+00
1.488000000000000000e+03 0.000000000000000000e+00
1.489000000000000000e+03 0.000000000000000000e+00
1.490000000000000000e+03 0.000000000000000000e+00
1.491000000000000000e+03 0.000000000000000000e+00
1.492000000000000000e+03 0.000000000000000000e+00
1.493000000000000000e+03 0.000000000000000000e+00
1.494000000000000000e+03 0.000000000000000000e+00
1.495000000000000000e+03 0.000000000000000000e+00
1.496000000000000000e+03 0.000000000000000000e+00
1.497000000000000000e+03 0.000000000000000000e+00
1.498000000000000000e+03 0.000000000000000000e+00
1.499000000000000000e+03 0.000000000000000000e+00
1.500000000000000000e+03 0.000000000000000000e+00
