1.010000000000000000e+02 0.000000000000000000e+00
1.020000000000000000e+02 0.000000000000000000e+00
1.030000000000000000e+02 0.000000000000000000e+00
1.040000000000000000e+02 0.000000000000000000e+00
1.050000000000000000e+02 0.000000000000000000e+00
1.060000000000000000e+02 0.000000000000000000e+00
1.070000000000000000e+02 0.000000000000000000e+00
1.080000000000000000e+02 0.000000000000000000e+00
1.090000000000000000e+02 0.000000000000000000e+00
1.100000000000000000e+02 0.000000000000000000e+00
1.110000000000000000e+02 0.000000000000000000e+00
1.120000000000000000e+02 0.000000000000000000e+00
1.130000000000000000e+02 0.000000000000000000e+00
1.140000000000000000e+02 0.000000000000000000e+00
1.150000000000000000e+02 0.000000000000000000e+00
1.160000000000000000e+02 0.000000000000000000e+00
1.170000000000000000e+02 0.000000000000000000e+00
1.180000000000000000e+02 0.000000000000000000e+00
1.190000000000000000e+02 0.000000000000000000e+00
1.200000000000000000e+02 0.000000000000000000e+00
1.210000000000000000e+02 0.000000000000000000e+00
1.220000000000000000e+02 0.000000000000000000e+00
1.230000000000000000e+02 0.000000000000000000e+00
1.240000000000000000e+02 0.000000000000000000e+00
1.250000000000000000e+02 0.000000000000000000e+00
1.260000000000000000e+02 0.000000000000000000e+00
1.270000000000000000e+02 0.000000000000000000e+00
1.280000000000000000e+02 0.000000000000000000e+00
1.290000000000000000e+02 0.000000000000000000e+00
1.300000000000000000e+02 0.000000000000000000e+00
1.310000000000000000e+02 0.000000000000000000e+00
1.320000000000000000e+02 0.000000000000000000e+00
1.330000000000000000e+02 0.000000000000000000e+00
1.340000000000000000e+02 0.000000000000000000e+00
1.350000000000000000e+02 0.000000000000000000e+00
1.360000000000000000e+02 0.000000000000000000e+00
1.370000000000000000e+02 0.000000000000000000e+00
1.380000000000000000e+02 0.000000000000000000e+00
1.390000000000000000e+02 0.000000000000000000e+00
1.400000000000000000e+02 0.000000000000000000e+00
1.410000000000000000e+02 0.000000000000000000e+00
1.420000000000000000e+02 0.000000000000000000e+00
1.430000000000000000e+02 0.000000000000000000e+00
1.440000000000000000e+02 0.000000000000000000e+00
1.450000000000000000e+02 0.000000000000000000e+00
1.460000000000000000e+02 0.000000000000000000e+00
1.470000000000000000e+02 0.000000000000000000e+00
1.480000000000000000e+02 0.000000000000000000e+00
1.490000000000000000e+02 0.000000000000000000e+00
1.500000000000000000e+02 0.000000000000000000e+00
1.510000000000000000e+02 0.000000000000000000e+00
1.520000000000000000e+02 0.000000000000000000e+00
1.530000000000000000e+02 0.000000000000000000e+00
1.540000000000000000e+02 0.000000000000000000e+00
1.550000000000000000e+02 0.000000000000000000e+00
1.560000000000000000e+02 3.520947971795501452e+00
1.570000000000000000e+02 2.883610969715781636e+01
1.580000000000000000e+02 1.435164721717497827e+01
1.590000000000000000e+02 9.358917663970095191e+01
1.600000000000000000e+02 6.134239215100686238e+01
1.610000000000000000e+02 3.424182408421502544e+01
1.620000000000000000e+02 3.832427717278571322e+01
1.630000000000000000e+02 1.870779192283765724e+01
1.640000000000000000e+02 7.905273098112483687e+00
1.650000000000000000e+02 4.897459079651512504e+00
1.660000000000000000e+02 1.368626124496999630e+01
1.670000000000000000e+02 3.682734266957061209e+01
1.680000000000000000e+02 6.145481574362123212e+01
1.690000000000000000e+02 1.193683894627678939e+02
1.700000000000000000e+02 1.589822780588967248e+02
1.710000000000000000e+02 1.583600230450114168e+02
1.720000000000000000e+02 1.601829788425636707e+02
1.730000000000000000e+02 1.918186983409373170e+02
1.740000000000000000e+02 1.843890618543866822e+02
1.750000000000000000e+02 1.780489991288116016e+02
1.760000000000000000e+02 2.523114622978015120e+02
1.770000000000000000e+02 2.092034041692604376e+02
1.780000000000000000e+02 1.575259680771620481e+02
1.790000000000000000e+02 1.834051956034842306e+02
1.800000000000000000e+02 2.729859500725988255e+02
1.810000000000000000e+02 2.600376280024891003e+02
1.820000000000000000e+02 2.764484454884882325e+02
1.830000000000000000e+02 2.940325990250984773e+02
1.840000000000000000e+02 2.945372483924497260e+02
1.850000000000000000e+02 3.423062478531419970e+02
1.860000000000000000e+02 4.022040796515244097e+02
1.870000000000000000e+02 4.289948286247666260e+02
1.880000000000000000e+02 4.560062880315287543e+02
1.890000000000000000e+02 5.513656482472511016e+02
1.900000000000000000e+02 6.164432367143740521e+02
1.910000000000000000e+02 6.891384940261364136e+02
1.920000000000000000e+02 7.388000384152666129e+02
1.930000000000000000e+02 7.488393070924925041e+02
1.940000000000000000e+02 9.001762094586165404e+02
1.950000000000000000e+02 1.064139163036716127e+03
1.960000000000000000e+02 1.191758925948973456e+03
1.970000000000000000e+02 1.310845933416303296e+03
1.980000000000000000e+02 1.527035269238745286e+03
1.990000000000000000e+02 1.767235685127569695e+03
2.000000000000000000e+02 1.960383665214686744e+03
2.010000000000000000e+02 2.104367576851275771e+03
2.020000000000000000e+02 2.234861199336236496e+03
2.030000000000000000e+02 2.299447556108691060e+03
2.040000000000000000e+02 2.340893376477909442e+03
2.050000000000000000e+02 2.398020354698195206e+03
2.060000000000000000e+02 2.498993955610868397e+03
2.070000000000000000e+02 2.668625626218624802e+03
2.080000000000000000e+02 2.889563479775982159e+03
2.090000000000000000e+02 3.086748161792159863e+03
2.100000000000000000e+02 3.242257453338863343e+03
2.110000000000000000e+02 3.366579240406555073e+03
2.120000000000000000e+02 3.234050819954363305e+03
2.130000000000000000e+02 2.968685132102859825e+03
2.140000000000000000e+02 2.649763539514623972e+03
2.150000000000000000e+02 2.329883104750053917e+03
2.160000000000000000e+02 2.086927703442554503e+03
2.170000000000000000e+02 1.953697899191038459e+03
2.180000000000000000e+02 1.875562186060983095e+03
2.190000000000000000e+02 1.820443028411447585e+03
2.200000000000000000e+02 1.815829855631611508e+03
2.210000000000000000e+02 1.879211890894006274e+03
2.220000000000000000e+02 1.881068082970338082e+03
2.230000000000000000e+02 1.803866513378967511e+03
2.240000000000000000e+02 1.693733711055798949e+03
2.250000000000000000e+02 1.524369973449489635e+03
2.260000000000000000e+02 1.267400993362371537e+03
2.270000000000000000e+02 1.013168432911655259e+03
2.280000000000000000e+02 8.362696811449920915e+02
2.290000000000000000e+02 7.004555028209914553e+02
2.300000000000000000e+02 5.872896540024879641e+02
2.310000000000000000e+02 4.869165169466916154e+02
2.320000000000000000e+02 4.042059887367770443e+02
2.330000000000000000e+02 3.532991103276644367e+02
2.340000000000000000e+02 3.276294034432688704e+02
2.350000000000000000e+02 3.001983651939430615e+02
2.360000000000000000e+02 2.520943680149352133e+02
2.370000000000000000e+02 1.893621141257000886e+02
2.380000000000000000e+02 2.033447922215309802e+02
2.390000000000000000e+02 2.073809271313005524e+02
2.400000000000000000e+02 2.074530475627462920e+02
2.410000000000000000e+02 2.104989375855631693e+02
2.420000000000000000e+02 2.009188452395765694e+02
2.430000000000000000e+02 1.466856062227750499e+02
2.440000000000000000e+02 1.327961555693839557e+02
2.450000000000000000e+02 1.435238431445757783e+02
2.460000000000000000e+02 1.441905459240821585e+02
2.470000000000000000e+02 1.553655333748185967e+02
2.480000000000000000e+02 1.394602961626218871e+02
2.490000000000000000e+02 1.358897755859778727e+02
2.500000000000000000e+02 1.597271326213187592e+02
2.510000000000000000e+02 1.732424971375232303e+02
2.520000000000000000e+02 1.460969691765193375e+02
2.530000000000000000e+02 1.375229438822065049e+02
2.540000000000000000e+02 1.701833511719553371e+02
2.550000000000000000e+02 2.105863342874922353e+02
2.560000000000000000e+02 1.752715628784735031e+02
2.570000000000000000e+02 1.748742624766645406e+02
2.580000000000000000e+02 1.745389875129642689e+02
2.590000000000000000e+02 1.749275486520117227e+02
2.600000000000000000e+02 2.156792923459864824e+02
2.610000000000000000e+02 1.889042434971997295e+02
2.620000000000000000e+02 2.014002158058501948e+02
2.630000000000000000e+02 2.300515595312175492e+02
2.640000000000000000e+02 2.429936860609838050e+02
2.650000000000000000e+02 3.019261764779091664e+02
2.660000000000000000e+02 2.364052270898130814e+02
2.670000000000000000e+02 1.854564433105168177e+02
2.680000000000000000e+02 1.855582054138150170e+02
2.690000000000000000e+02 1.588375395768516682e+02
2.700000000000000000e+02 1.608700147687202104e+02
2.710000000000000000e+02 1.569524261771418026e+02
2.720000000000000000e+02 1.247998525202247890e+02
2.730000000000000000e+02 9.494932280647169875e+01
2.740000000000000000e+02 1.437792881767267374e+02
2.750000000000000000e+02 1.116433534121556050e+02
2.760000000000000000e+02 1.023201490253004096e+02
2.770000000000000000e+02 1.040997752686160567e+02
2.780000000000000000e+02 5.686802104542625358e+01
2.790000000000000000e+02 7.749567681045218137e+01
2.800000000000000000e+02 9.828819445135877686e+01
2.810000000000000000e+02 9.126588177104943611e+01
2.820000000000000000e+02 7.482800909562314473e+01
2.830000000000000000e+02 8.438856203484714058e+01
2.840000000000000000e+02 2.313321357839081926e+01
2.850000000000000000e+02 2.856024841111747037e+01
2.860000000000000000e+02 2.747308834681658851e+01
2.870000000000000000e+02 8.962774046453636956e+00
2.880000000000000000e+02 8.378260759178647987e+00
2.890000000000000000e+02 1.226965099979238261e+01
2.900000000000000000e+02 3.087144196639714266e+01
2.910000000000000000e+02 4.893964940261356844e+01
2.920000000000000000e+02 3.826016434972017066e+01
2.930000000000000000e+02 6.368277728064724919e+00
2.940000000000000000e+02 5.000080964737684042e+00
2.950000000000000000e+02 5.425105846919683117e+00
2.960000000000000000e+02 1.107659281310950306e+01
2.970000000000000000e+02 1.147551889234592082e+01
2.980000000000000000e+02 4.199139204729215535e+00
2.990000000000000000e+02 4.873877125077736294e-01
3.000000000000000000e+02 1.089965423812546241e+01
3.010000000000000000e+02 3.209404446795293353e+01
3.020000000000000000e+02 6.534303582452357873e+00
3.030000000000000000e+02 2.287617649035446021e+01
3.040000000000000000e+02 1.168736005806709422e+01
3.050000000000000000e+02 2.855689226923879431e+01
3.060000000000000000e+02 2.572102554449241296e+01
3.070000000000000000e+02 6.754000407299845676e+01
3.080000000000000000e+02 2.753794973366521859e+01
3.090000000000000000e+02 3.516419689276069960e+01
3.100000000000000000e+02 2.856771406055564455e+01
3.110000000000000000e+02 2.526415450528973849e+01
3.120000000000000000e+02 1.457315742605257469e+01
3.130000000000000000e+02 1.753120248548372118e+01
3.140000000000000000e+02 4.308406018668371473e+01
3.150000000000000000e+02 5.547198299937774379e+01
3.160000000000000000e+02 8.023704579963084171e+00
3.170000000000000000e+02 1.343632703795975125e+01
3.180000000000000000e+02 4.652846695291501078e+01
3.190000000000000000e+02 7.331150945032125321e+01
3.200000000000000000e+02 8.005954051649059977e+01
3.210000000000000000e+02 5.645728433727452256e+01
3.220000000000000000e+02 6.644516460277924352e+01
3.230000000000000000e+02 9.125954200788201831e+01
3.240000000000000000e+02 1.090858579962658297e+02
3.250000000000000000e+02 1.435349105787181259e+02
3.260000000000000000e+02 1.581117376270482850e+02
3.270000000000000000e+02 1.447095946484134856e+02
3.280000000000000000e+02 1.286744364862061047e+02
3.290000000000000000e+02 1.417492973242067080e+02
3.300000000000000000e+02 2.101605528411447494e+02
3.310000000000000000e+02 2.771750773905838514e+02
3.320000000000000000e+02 3.236198074880733770e+02
3.330000000000000000e+02 3.468507188718373868e+02
3.340000000000000000e+02 3.666000612321111589e+02
3.350000000000000000e+02 4.650939811864782314e+02
3.360000000000000000e+02 5.721274000000000797e+02
3.370000000000000000e+02 6.672168054967829676e+02
3.380000000000000000e+02 7.530213688861210812e+02
3.390000000000000000e+02 8.396408826213191787e+02
3.400000000000000000e+02 1.021994977805431859e+03
3.410000000000000000e+02 1.184007977598006164e+03
3.420000000000000000e+02 1.356256471588552586e+03
3.430000000000000000e+02 1.596796996266333736e+03
3.440000000000000000e+02 1.850434146442644533e+03
3.450000000000000000e+02 2.088554270483304663e+03
3.460000000000000000e+02 2.314324677452811557e+03
3.470000000000000000e+02 2.549799836341007904e+03
3.480000000000000000e+02 2.823583754200378735e+03
3.490000000000000000e+02 3.139565012652980840e+03
3.500000000000000000e+02 3.474896943591867512e+03
3.510000000000000000e+02 3.795742508815600104e+03
3.520000000000000000e+02 4.088636403858127778e+03
3.530000000000000000e+02 4.300606065339139604e+03
3.540000000000000000e+02 4.207780106202036222e+03
3.550000000000000000e+02 3.970950992117824626e+03
3.560000000000000000e+02 3.595993216345158999e+03
3.570000000000000000e+02 3.091654367143753007e+03
3.580000000000000000e+02 2.539835632310251185e+03
3.590000000000000000e+02 2.106350723708773330e+03
3.600000000000000000e+02 1.735037217382287054e+03
3.610000000000000000e+02 1.398409310244711605e+03
3.620000000000000000e+02 1.105657635345361314e+03
3.630000000000000000e+02 8.874710241858525706e+02
3.640000000000000000e+02 7.387288199502263524e+02
3.650000000000000000e+02 6.445082309894198715e+02
3.660000000000000000e+02 5.325025778469174611e+02
3.670000000000000000e+02 3.807893761509769206e+02
3.680000000000000000e+02 3.002748433934854120e+02
3.690000000000000000e+02 2.424736281684285757e+02
3.700000000000000000e+02 2.161215476872020531e+02
3.710000000000000000e+02 1.813430825140035552e+02
3.720000000000000000e+02 1.132116150176295406e+02
3.730000000000000000e+02 1.974471630159716824e+02
3.740000000000000000e+02 1.284419867662323611e+02
3.750000000000000000e+02 7.433607667703745392e+01
3.760000000000000000e+02 8.720715100808958198e+01
3.770000000000000000e+02 7.449422839867249024e+01
3.780000000000000000e+02 7.610981493051232860e+01
3.790000000000000000e+02 6.393276848371684196e+01
3.800000000000000000e+02 7.473220353453659470e+01
3.810000000000000000e+02 1.086484140344327045e+02
3.820000000000000000e+02 1.327534106409463845e+02
3.830000000000000000e+02 1.688098173822864112e+02
3.840000000000000000e+02 2.075529424720035934e+02
3.850000000000000000e+02 2.330019388923456916e+02
3.860000000000000000e+02 2.606310124455521304e+02
3.870000000000000000e+02 3.122082036084612469e+02
3.880000000000000000e+02 3.026358805849410487e+02
3.890000000000000000e+02 3.306551574984430317e+02
3.900000000000000000e+02 3.663475117378682739e+02
3.910000000000000000e+02 3.336302092719363372e+02
3.920000000000000000e+02 2.138802069072823997e+02
3.930000000000000000e+02 1.456020155122357096e+02
3.940000000000000000e+02 1.399813439327940046e+02
3.950000000000000000e+02 1.141212383530392174e+02
3.960000000000000000e+02 4.976232090004083375e+01
3.970000000000000000e+02 2.291450974196192902e+01
3.980000000000000000e+02 3.374788614187932723e+01
3.990000000000000000e+02 3.296280088363364058e+01
4.000000000000000000e+02 4.383017506119205109e+01
4.010000000000000000e+02 8.283194868284530799e+01
4.020000000000000000e+02 1.772996543663141367e+01
4.030000000000000000e+02 4.633643278780409958e+01
4.040000000000000000e+02 6.026480582451770118e+01
4.050000000000000000e+02 4.969931199128852484e+01
4.060000000000000000e+02 6.694579403650536165e+01
4.070000000000000000e+02 1.814112301804619847e+02
4.080000000000000000e+02 2.195780183571872044e+02
4.090000000000000000e+02 2.160008778054346976e+02
4.100000000000000000e+02 2.447840808338507941e+02
4.110000000000000000e+02 3.182780846919725946e+02
4.120000000000000000e+02 3.588339770379585616e+02
4.130000000000000000e+02 4.261541482787220048e+02
4.140000000000000000e+02 5.187501651524587487e+02
4.150000000000000000e+02 5.718978051026758749e+02
4.160000000000000000e+02 5.978306347573628727e+02
4.170000000000000000e+02 7.221805718730573744e+02
4.180000000000000000e+02 7.900199379589304272e+02
4.190000000000000000e+02 9.289088730817059059e+02
4.200000000000000000e+02 1.110258783862273276e+03
4.210000000000000000e+02 1.290991048527580688e+03
4.220000000000000000e+02 1.541311230242683678e+03
4.230000000000000000e+02 1.806957052686158477e+03
4.240000000000000000e+02 2.008432729516697009e+03
4.250000000000000000e+02 2.278529626633474891e+03
4.260000000000000000e+02 2.703778443683876503e+03
4.270000000000000000e+02 3.149051869321720005e+03
4.280000000000000000e+02 3.579957876581621804e+03
4.290000000000000000e+02 4.022837756482054829e+03
4.300000000000000000e+02 4.467737810620209530e+03
4.310000000000000000e+02 4.939451792781585937e+03
4.320000000000000000e+02 5.510466573117611915e+03
4.330000000000000000e+02 5.981442898776197580e+03
4.340000000000000000e+02 6.406162500103720049e+03
4.350000000000000000e+02 6.694489436216555077e+03
4.360000000000000000e+02 6.803470925326693759e+03
4.370000000000000000e+02 6.850661033602987118e+03
4.380000000000000000e+02 6.595290024678549344e+03
4.390000000000000000e+02 6.098890300974911042e+03
4.400000000000000000e+02 5.550389542626022376e+03
4.410000000000000000e+02 5.012723454168408352e+03
4.420000000000000000e+02 4.370224013067832857e+03
4.430000000000000000e+02 3.838153428541802896e+03
4.440000000000000000e+02 3.325515768768148973e+03
4.450000000000000000e+02 2.939306584318605928e+03
4.460000000000000000e+02 2.679798975731177507e+03
4.470000000000000000e+02 2.349636516798006596e+03
4.480000000000000000e+02 2.042569371499686440e+03
4.490000000000000000e+02 1.853619042314871876e+03
4.500000000000000000e+02 1.692163207797590530e+03
4.510000000000000000e+02 1.523513874922213290e+03
4.520000000000000000e+02 1.414999160962454425e+03
4.530000000000000000e+02 1.273718424185856747e+03
4.540000000000000000e+02 1.159226523957682502e+03
4.550000000000000000e+02 1.048615517942332872e+03
4.560000000000000000e+02 9.389159784277135259e+02
4.570000000000000000e+02 8.681129759178604672e+02
4.580000000000000000e+02 8.272858414436847170e+02
4.590000000000000000e+02 8.118981642190417460e+02
4.600000000000000000e+02 7.848381537855221950e+02
4.610000000000000000e+02 7.601293222775358345e+02
4.620000000000000000e+02 7.679881476664592128e+02
4.630000000000000000e+02 7.495875122588674913e+02
4.640000000000000000e+02 7.690750015971786979e+02
4.650000000000000000e+02 7.434161827006838621e+02
4.660000000000000000e+02 7.129715061605478468e+02
4.670000000000000000e+02 7.550284601202820340e+02
4.680000000000000000e+02 7.472379084629739054e+02
4.690000000000000000e+02 6.933904435386840532e+02
4.700000000000000000e+02 6.335660450020741337e+02
4.710000000000000000e+02 6.193031489524995550e+02
4.720000000000000000e+02 6.253697460485363990e+02
4.730000000000000000e+02 5.264276945043553724e+02
4.740000000000000000e+02 5.203234630989416019e+02
4.750000000000000000e+02 4.928906685127581682e+02
4.760000000000000000e+02 4.240266698465368904e+02
4.770000000000000000e+02 3.506171481020543865e+02
4.780000000000000000e+02 2.762847259697172717e+02
4.790000000000000000e+02 1.986463660236464648e+02
4.800000000000000000e+02 1.820617951877203495e+02
4.810000000000000000e+02 1.832734189172372226e+02
4.820000000000000000e+02 1.553558285625383064e+02
4.830000000000000000e+02 1.032689220535156096e+02
4.840000000000000000e+02 6.521289611076539927e+01
4.850000000000000000e+02 8.038743160547670641e+01
4.860000000000000000e+02 8.578077553204693118e+01
4.870000000000000000e+02 7.470896618129023636e+01
4.880000000000000000e+02 7.763776663970099889e+01
4.890000000000000000e+02 9.705850578716496813e+00
4.900000000000000000e+02 6.418340754822659200e+00
4.910000000000000000e+02 1.266117530180431316e+01
4.920000000000000000e+02 3.913900314807175107e+01
4.930000000000000000e+02 2.610879479568544781e+01
4.940000000000000000e+02 3.292236264882870955e+01
4.950000000000000000e+02 6.326318552260373451e+01
4.960000000000000000e+02 1.191020267579340555e+02
4.970000000000000000e+02 1.209799701514208579e+02
4.980000000000000000e+02 1.246336653670676355e+02
4.990000000000000000e+02 1.296755062227753967e+02
5.000000000000000000e+02 1.330601650902302708e+02
5.010000000000000000e+02 1.387633767938615961e+02
5.020000000000000000e+02 1.424380928230656593e+02
5.030000000000000000e+02 1.730104528728488162e+02
5.040000000000000000e+02 2.839209804230594614e+02
5.050000000000000000e+02 2.038062705662729854e+02
5.060000000000000000e+02 2.464120734287505456e+02
5.070000000000000000e+02 2.353180436009143648e+02
5.080000000000000000e+02 1.630859919933619722e+02
5.090000000000000000e+02 1.854526696328563276e+02
5.100000000000000000e+02 1.676353627878034445e+02
5.110000000000000000e+02 1.568321295996682068e+02
5.120000000000000000e+02 1.180692501348277261e+02
5.130000000000000000e+02 9.693279168222309750e+01
5.140000000000000000e+02 1.043918570504050507e+02
5.150000000000000000e+02 4.485770990665811553e+01
5.160000000000000000e+02 9.168746978427736849e+01
5.170000000000000000e+02 3.945752229620376994e+01
5.180000000000000000e+02 2.293119983409373219e+01
5.190000000000000000e+02 1.490508262974449138e+01
5.200000000000000000e+02 1.006804964675405145e+01
5.210000000000000000e+02 4.426901816673574785e+01
5.220000000000000000e+02 2.060802854884988378e+01
5.230000000000000000e+02 4.117839991288094126e+01
5.240000000000000000e+02 2.641085467440927914e+01
5.250000000000000000e+02 7.399496732213245309e+01
5.260000000000000000e+02 5.845545536195812275e+01
5.270000000000000000e+02 3.393414135213593141e+01
5.280000000000000000e+02 3.591487283758561944e+01
5.290000000000000000e+02 4.006672729101848063e+01
5.300000000000000000e+02 2.654330115097455334e+01
5.310000000000000000e+02 5.883181864343527856e+00
5.320000000000000000e+02 4.239605400746717123e+01
5.330000000000000000e+02 7.550289334163049659e+01
5.340000000000000000e+02 8.801869769964737600e+01
5.350000000000000000e+02 7.780792020535196230e+01
5.360000000000000000e+02 5.136519831155357707e+01
5.370000000000000000e+02 4.515020113876779106e+01
5.380000000000000000e+02 8.035337733665140547e+01
5.390000000000000000e+02 9.774208211781788691e+01
5.400000000000000000e+02 7.235286037751551191e+01
5.410000000000000000e+02 4.271087006845066014e+01
5.420000000000000000e+02 6.445197520224003540e+01
5.430000000000000000e+02 1.059363221821193406e+02
5.440000000000000000e+02 7.129779278573076340e+01
5.450000000000000000e+02 5.510408892553377314e+01
5.460000000000000000e+02 8.313577988176747624e+01
5.470000000000000000e+02 6.061275316881045683e+01
5.480000000000000000e+02 3.505064729516715261e+01
5.490000000000000000e+02 9.695224711263298900e+01
5.500000000000000000e+02 1.069924790294497825e+02
5.510000000000000000e+02 5.721366156814001869e+01
5.520000000000000000e+02 3.866537020327716334e+01
5.530000000000000000e+02 5.949213404811241901e+01
5.540000000000000000e+02 6.389868598838424418e+01
5.550000000000000000e+02 4.950996647790972816e+01
5.560000000000000000e+02 5.091003863956829889e+01
5.570000000000000000e+02 7.842999529143251891e+01
5.580000000000000000e+02 9.548353131922830528e+01
5.590000000000000000e+02 2.031044882348111358e+01
5.600000000000000000e+02 1.672958479775957841e+01
5.610000000000000000e+02 1.280287677971422156e+01
5.620000000000000000e+02 1.375668343082366363e+01
5.630000000000000000e+02 3.499296995229214247e+01
5.640000000000000000e+02 4.048665761045420908e+01
5.650000000000000000e+02 1.022428345150474449e+01
5.660000000000000000e+02 3.472680384567643586e+01
5.670000000000000000e+02 6.308050469612147282e+01
5.680000000000000000e+02 4.628869031321444538e+01
5.690000000000000000e+02 1.520050481642737772e+01
5.700000000000000000e+02 4.030252765401426274e+01
5.710000000000000000e+02 1.647295697158282834e+01
5.720000000000000000e+02 2.668300443269152922e+01
5.730000000000000000e+02 1.422488765242542996e+01
5.740000000000000000e+02 3.099198276913518058e+01
5.750000000000000000e+02 2.785339460070498774e+01
5.760000000000000000e+02 5.031918721899595681e+01
5.770000000000000000e+02 5.885819335822443321e+01
5.780000000000000000e+02 3.423705724953335050e+01
5.790000000000000000e+02 7.346344152633765390e+00
5.800000000000000000e+02 2.181192645924127049e+01
5.810000000000000000e+02 4.409470828873712378e+01
5.820000000000000000e+02 3.547911344255592070e+01
5.830000000000000000e+02 3.229736339763557140e+01
5.840000000000000000e+02 7.372254530178341980e+00
5.850000000000000000e+02 3.015358320058133756e+01
5.860000000000000000e+02 8.001346365069535693e+01
5.870000000000000000e+02 4.379875342181404108e+01
5.880000000000000000e+02 4.636975622899202065e+00
5.890000000000000000e+02 8.067366278364428211e+00
5.900000000000000000e+02 4.192940238075444626e+01
5.910000000000000000e+02 5.150132241028835267e+01
5.920000000000000000e+02 4.024020639701312518e+01
5.930000000000000000e+02 3.880646498133555866e+01
5.940000000000000000e+02 3.271567674548835924e+01
5.950000000000000000e+02 6.054829181082845935e+01
5.960000000000000000e+02 9.242870141849849119e+01
5.970000000000000000e+02 7.089441633478463700e+01
5.980000000000000000e+02 8.366584893590466265e+01
5.990000000000000000e+02 8.894516090230166583e+01
6.000000000000000000e+02 1.222566844877661083e+02
6.010000000000000000e+02 1.255625082555507106e+02
6.020000000000000000e+02 8.872881821406271285e+01
6.030000000000000000e+02 1.140296036291994000e+02
6.040000000000000000e+02 1.040347131507986376e+02
6.050000000000000000e+02 1.192703059531214080e+02
6.060000000000000000e+02 1.370179759021153245e+02
6.070000000000000000e+02 1.647261326073434873e+02
6.080000000000000000e+02 2.024325734080067036e+02
6.090000000000000000e+02 1.864890298423886179e+02
6.100000000000000000e+02 2.074862941920770822e+02
6.110000000000000000e+02 1.646635459863073834e+02
6.120000000000000000e+02 2.217781026130309954e+02
6.130000000000000000e+02 3.325573555071555347e+02
6.140000000000000000e+02 3.177543166148097384e+02
6.150000000000000000e+02 3.033192001659417656e+02
6.160000000000000000e+02 2.706045260112014148e+02
6.170000000000000000e+02 2.970986974071790314e+02
6.180000000000000000e+02 3.397323598008708814e+02
6.190000000000000000e+02 3.421007964322758994e+02
6.200000000000000000e+02 3.307325291225883461e+02
6.210000000000000000e+02 3.764588198506536969e+02
6.220000000000000000e+02 4.030583319228376808e+02
6.230000000000000000e+02 3.809687375648204011e+02
6.240000000000000000e+02 3.601024403028415577e+02
6.250000000000000000e+02 3.868236935905425185e+02
6.260000000000000000e+02 4.526760597469926211e+02
6.270000000000000000e+02 4.194270007674747944e+02
6.280000000000000000e+02 4.125844730553827731e+02
6.290000000000000000e+02 3.966722360431347170e+02
6.300000000000000000e+02 3.697809169881763296e+02
6.310000000000000000e+02 3.895579655258268303e+02
6.320000000000000000e+02 4.624775788262134029e+02
6.330000000000000000e+02 3.934714364239800943e+02
6.340000000000000000e+02 4.045942822650913513e+02
6.350000000000000000e+02 4.418707382828708319e+02
6.360000000000000000e+02 4.291281487243311403e+02
6.370000000000000000e+02 3.904192440987347936e+02
6.380000000000000000e+02 4.081676413521362292e+02
6.390000000000000000e+02 3.563911416303658939e+02
6.400000000000000000e+02 3.916382553619587270e+02
6.410000000000000000e+02 4.074767092304488756e+02
6.420000000000000000e+02 3.401333245384754491e+02
6.430000000000000000e+02 2.612826855631613512e+02
6.440000000000000000e+02 2.868211883634100445e+02
6.450000000000000000e+02 2.345103612943366898e+02
6.460000000000000000e+02 2.535446454055177981e+02
6.470000000000000000e+02 2.616758782410279878e+02
6.480000000000000000e+02 2.288825538892343729e+02
6.490000000000000000e+02 2.020044164903546857e+02
6.500000000000000000e+02 1.483354600082972752e+02
6.510000000000000000e+02 2.343255586807706550e+02
6.520000000000000000e+02 2.217393339141258934e+02
6.530000000000000000e+02 1.856030660858743033e+02
6.540000000000000000e+02 1.795917292263015099e+02
6.550000000000000000e+02 1.515218972418084888e+02
6.560000000000000000e+02 1.211290871188550113e+02
6.570000000000000000e+02 1.498050703173614977e+02
6.580000000000000000e+02 1.345433493571132715e+02
6.590000000000000000e+02 1.430049532254721498e+02
6.600000000000000000e+02 1.736032309064510173e+02
6.610000000000000000e+02 1.510377378058896625e+02
6.620000000000000000e+02 1.530675772246421786e+02
6.630000000000000000e+02 1.824109701514206279e+02
6.640000000000000000e+02 1.412052343840728668e+02
6.650000000000000000e+02 7.642040583281499266e+01
6.660000000000000000e+02 5.366900973864350277e+01
6.670000000000000000e+02 8.695041113876798988e+01
6.680000000000000000e+02 1.270977248288735808e+02
6.690000000000000000e+02 8.791682324968957118e+01
6.700000000000000000e+02 4.326103165318403398e+01
6.710000000000000000e+02 6.182098756067131262e+01
6.720000000000000000e+02 1.063665216092906718e+02
6.730000000000000000e+02 1.114442375855630729e+02
6.740000000000000000e+02 1.239654271520431763e+02
6.750000000000000000e+02 7.886738684570755709e+01
6.760000000000000000e+02 9.561653133167340002e+01
6.770000000000000000e+02 1.499318386849189437e+02
6.780000000000000000e+02 1.438368473247619193e+02
6.790000000000000000e+02 5.089017210952178516e+01
6.800000000000000000e+02 5.467234417548120717e+01
6.810000000000000000e+02 1.039897814561294354e+02
6.820000000000000000e+02 6.954085950217789502e+01
6.830000000000000000e+02 3.740958687409251127e+01
6.840000000000000000e+02 6.977065168222263480e+01
6.850000000000000000e+02 1.344700256378354197e+02
6.860000000000000000e+02 1.529730545737395744e+02
6.870000000000000000e+02 1.050382413047090893e+02
6.880000000000000000e+02 1.405774966396993193e+02
6.890000000000000000e+02 1.531423977598020940e+02
6.900000000000000000e+02 1.215444147479780952e+02
6.910000000000000000e+02 1.247579654428533900e+02
6.920000000000000000e+02 1.680843006845038872e+02
6.930000000000000000e+02 1.403019452603201671e+02
6.940000000000000000e+02 1.955555883634085035e+02
6.950000000000000000e+02 2.277126857735383112e+02
6.960000000000000000e+02 1.869861479775984776e+02
6.970000000000000000e+02 1.607953520846290303e+02
6.980000000000000000e+02 2.814715553919536433e+02
6.990000000000000000e+02 2.644937318606088752e+02
7.000000000000000000e+02 2.067392710848364743e+02
7.010000000000000000e+02 2.200877127747801296e+02
7.020000000000000000e+02 2.705527943372730419e+02
7.030000000000000000e+02 3.031972330429382509e+02
7.040000000000000000e+02 3.273221980091241221e+02
7.050000000000000000e+02 3.423022103090640940e+02
7.060000000000000000e+02 3.417930761252854381e+02
7.070000000000000000e+02 3.482406900643022141e+02
7.080000000000000000e+02 3.164797497199776330e+02
7.090000000000000000e+02 2.707180658577053691e+02
7.100000000000000000e+02 2.739723104957483883e+02
7.110000000000000000e+02 2.182269103505498720e+02
7.120000000000000000e+02 2.431628967641562724e+02
7.130000000000000000e+02 2.705240678282515319e+02
7.140000000000000000e+02 2.664568564613148851e+02
7.150000000000000000e+02 2.525266210537232610e+02
7.160000000000000000e+02 2.265573098112405148e+02
7.170000000000000000e+02 1.516580514001230426e+02
7.180000000000000000e+02 1.913373023646564661e+02
7.190000000000000000e+02 1.752172082970359952e+02
7.200000000000000000e+02 1.481045024891093078e+02
7.210000000000000000e+02 1.619465885732079471e+02
7.220000000000000000e+02 1.800070952706929290e+02
7.230000000000000000e+02 1.279680767890493343e+02
7.240000000000000000e+02 1.047315291580257224e+02
7.250000000000000000e+02 1.192541166355523785e+02
7.260000000000000000e+02 1.447398415059112722e+02
7.270000000000000000e+02 1.222070910410622560e+02
7.280000000000000000e+02 6.843960875959332668e+01
7.290000000000000000e+02 4.553199449699224033e+01
7.300000000000000000e+02 8.512323036084058714e+00
7.310000000000000000e+02 3.137980386434418278e+01
7.320000000000000000e+02 2.104178163244127830e+01
7.330000000000000000e+02 5.247705313562890694e+01
7.340000000000000000e+02 4.436023329807050430e+01
7.350000000000000000e+02 4.160442344741822751e+01
7.360000000000000000e+02 4.544960243933135757e+01
7.370000000000000000e+02 4.369967468575211456e+01
7.380000000000000000e+02 3.788957774367327147e+01
7.390000000000000000e+02 3.447445229412917200e+01
7.400000000000000000e+02 3.769795252799717389e+01
7.410000000000000000e+02 2.961830828873676680e+01
7.420000000000000000e+02 5.695308372121969143e+01
7.430000000000000000e+02 1.225172851513895544e+01
7.440000000000000000e+02 2.898151957270423651e+01
7.450000000000000000e+02 8.343647735532132970e+01
7.460000000000000000e+02 4.493658271671098703e+01
7.470000000000000000e+02 1.650314196245696863e+01
7.480000000000000000e+02 8.659992612321159910e+00
7.490000000000000000e+02 1.475354952706923939e+01
7.500000000000000000e+02 7.428078834474339942e+01
7.510000000000000000e+02 6.098205679385898037e+01
7.520000000000000000e+02 2.098751912673488107e+01
7.530000000000000000e+02 3.232619098527300849e+01
7.540000000000000000e+02 7.330771634176548446e+01
7.550000000000000000e+02 2.478887408836349593e+01
7.560000000000000000e+02 6.493208594067603201e+01
7.570000000000000000e+02 3.546249920365060859e+01
7.580000000000000000e+02 2.080647017216231731e+01
7.590000000000000000e+02 3.413065784691941928e+01
7.600000000000000000e+02 5.651724988801062111e+00
7.610000000000000000e+02 5.403802649243579559e+00
7.620000000000000000e+02 2.966285206388657514e+01
7.630000000000000000e+02 2.573179834059788895e+00
7.640000000000000000e+02 2.412930522713268999e+01
7.650000000000000000e+02 6.407944660443935447e+01
7.660000000000000000e+02 4.971204103713156286e+01
7.670000000000000000e+02 3.964603872432878706e+00
7.680000000000000000e+02 1.896847523833317339e+01
7.690000000000000000e+02 8.536837771001812314e+01
7.700000000000000000e+02 6.429051170296679629e+01
7.710000000000000000e+02 4.946353128396597043e+01
7.720000000000000000e+02 2.489797757104284059e+01
7.730000000000000000e+02 3.494059154947152024e+01
7.740000000000000000e+02 1.036949349222156229e+02
7.750000000000000000e+02 8.409666600912662204e+01
7.760000000000000000e+02 8.340731747977582700e+01
7.770000000000000000e+02 6.828061869763580205e+01
7.780000000000000000e+02 1.026980829682649556e+02
7.790000000000000000e+02 1.087027992242267942e+02
7.800000000000000000e+02 7.770949130651202097e+01
7.810000000000000000e+02 1.060711654635973247e+02
7.820000000000000000e+02 1.355593724331052101e+02
7.830000000000000000e+02 1.082911304023222527e+02
7.840000000000000000e+02 9.988172663762712489e+01
7.850000000000000000e+02 1.119813981331674171e+02
7.860000000000000000e+02 1.538263574450444651e+02
7.870000000000000000e+02 2.024177034225265288e+02
7.880000000000000000e+02 1.981652834266749892e+02
7.890000000000000000e+02 2.119766219663970617e+02
7.900000000000000000e+02 2.082740380626425463e+02
7.910000000000000000e+02 1.895275665836965118e+02
7.920000000000000000e+02 1.397203064094579759e+02
7.930000000000000000e+02 1.134217968263845506e+02
7.940000000000000000e+02 1.460234427089813209e+02
7.950000000000000000e+02 1.652473308442233133e+02
7.960000000000000000e+02 1.888635082140634438e+02
7.970000000000000000e+02 1.416020587015150056e+02
7.980000000000000000e+02 1.709207896079652755e+02
7.990000000000000000e+02 1.962652635552790628e+02
8.000000000000000000e+02 1.847223863098941763e+02
8.010000000000000000e+02 1.943759654013690010e+02
8.020000000000000000e+02 1.860639966189588677e+02
8.030000000000000000e+02 1.613383884695140011e+02
8.040000000000000000e+02 2.643488701929053946e+02
8.050000000000000000e+02 2.905947015556932911e+02
8.060000000000000000e+02 3.061540480713383658e+02
8.070000000000000000e+02 3.586085994192073940e+02
8.080000000000000000e+02 3.497751733665224378e+02
8.090000000000000000e+02 3.078753156366655048e+02
8.100000000000000000e+02 3.487091873055373412e+02
8.110000000000000000e+02 4.315887050819311526e+02
8.120000000000000000e+02 4.481661752799673195e+02
8.130000000000000000e+02 4.690727557560662149e+02
8.140000000000000000e+02 5.294745056627241411e+02
8.150000000000000000e+02 5.637739079651519205e+02
8.160000000000000000e+02 6.101448188342670846e+02
8.170000000000000000e+02 5.590177448039831916e+02
8.180000000000000000e+02 5.220959345571457106e+02
8.190000000000000000e+02 5.379680551337902443e+02
8.200000000000000000e+02 5.967287244762505907e+02
8.210000000000000000e+02 6.803944271520412030e+02
8.220000000000000000e+02 7.375381543248288381e+02
8.230000000000000000e+02 6.903293723086475211e+02
8.240000000000000000e+02 6.195837718730570032e+02
8.250000000000000000e+02 5.856080669778060610e+02
8.260000000000000000e+02 5.611808362165540984e+02
8.270000000000000000e+02 5.820733584526016102e+02
8.280000000000000000e+02 5.947646461729943894e+02
8.290000000000000000e+02 4.959272471795947013e+02
8.300000000000000000e+02 4.790419822858328871e+02
8.310000000000000000e+02 4.763027528935904797e+02
8.320000000000000000e+02 4.864696039402737142e+02
8.330000000000000000e+02 4.678562423770999885e+02
8.340000000000000000e+02 4.468113930719767382e+02
8.350000000000000000e+02 4.452503010369140384e+02
8.360000000000000000e+02 4.361660524994812249e+02
8.370000000000000000e+02 4.320844509023024784e+02
8.380000000000000000e+02 4.439323236001653754e+02
8.390000000000000000e+02 4.471510038166356935e+02
8.400000000000000000e+02 4.231744334992723680e+02
8.410000000000000000e+02 3.576636573206172329e+02
8.420000000000000000e+02 3.212840456751675333e+02
8.430000000000000000e+02 3.503774051441664028e+02
8.440000000000000000e+02 2.341895447832402795e+02
8.450000000000000000e+02 2.525514623314662686e+02
8.460000000000000000e+02 2.208556059116378663e+02
8.470000000000000000e+02 1.865632747977598171e+02
8.480000000000000000e+02 2.180059908732626752e+02
8.490000000000000000e+02 2.359496735532048888e+02
8.500000000000000000e+02 1.636136904998949149e+02
8.510000000000000000e+02 1.183863114499062164e+02
8.520000000000000000e+02 1.358475861439540040e+02
8.530000000000000000e+02 1.190132597801275267e+02
8.540000000000000000e+02 1.370216702966206412e+02
8.550000000000000000e+02 2.272123017420199176e+02
8.560000000000000000e+02 3.078003754200363460e+02
8.570000000000000000e+02 3.076226371914519859e+02
8.580000000000000000e+02 2.617136555785964447e+02
8.590000000000000000e+02 2.391947764779086754e+02
8.600000000000000000e+02 2.845275912881127169e+02
8.610000000000000000e+02 3.461232329323925114e+02
8.620000000000000000e+02 2.948539609002292536e+02
8.630000000000000000e+02 2.526263982368797656e+02
8.640000000000000000e+02 2.982738079427622324e+02
8.650000000000000000e+02 2.746910757311762836e+02
8.660000000000000000e+02 3.432690589089410196e+02
8.670000000000000000e+02 3.952564773123198165e+02
8.680000000000000000e+02 3.822166769757299107e+02
8.690000000000000000e+02 3.432601319850642767e+02
8.700000000000000000e+02 3.194370825762289314e+02
8.710000000000000000e+02 3.091402933001441511e+02
8.720000000000000000e+02 2.867870334785316686e+02
8.730000000000000000e+02 3.003765525202237541e+02
8.740000000000000000e+02 2.999882064716863965e+02
8.750000000000000000e+02 3.094061233976358380e+02
8.760000000000000000e+02 3.535945803152866347e+02
8.770000000000000000e+02 3.031969364447229509e+02
8.780000000000000000e+02 2.064187885500941206e+02
8.790000000000000000e+02 1.844885565028000940e+02
8.800000000000000000e+02 1.835206857498450859e+02
8.810000000000000000e+02 2.950288939016829204e+02
8.820000000000000000e+02 1.980447222314383566e+02
8.830000000000000000e+02 2.375124970960412725e+02
8.840000000000000000e+02 2.587295710640925677e+02
8.850000000000000000e+02 2.031726181045192163e+02
8.860000000000000000e+02 1.265707354988644795e+02
8.870000000000000000e+02 4.311501610039528032e+01
8.880000000000000000e+02 1.170105400248881438e+02
8.890000000000000000e+02 1.497753971375234698e+02
8.900000000000000000e+02 9.502172336237427430e+01
8.910000000000000000e+02 1.196279679635003816e+02
8.920000000000000000e+02 1.185155258452600435e+02
8.930000000000000000e+02 9.417017810205362593e+01
8.940000000000000000e+02 1.377082760680220588e+02
8.950000000000000000e+02 9.361191684297781990e+01
8.960000000000000000e+02 1.054567145529959191e+02
8.970000000000000000e+02 8.612472778676915297e+00
8.980000000000000000e+02 2.174264100186851678e+01
8.990000000000000000e+02 5.213491200165930195e+01
9.000000000000000000e+02 6.734388359261723167e+01
9.010000000000000000e+02 8.928809499066532851e+01
9.020000000000000000e+02 4.637051586807644554e+01
9.030000000000000000e+02 8.775817177348898213e+00
9.040000000000000000e+02 3.074494095001114147e+01
9.050000000000000000e+02 8.274382488902372046e+00
9.060000000000000000e+02 1.378267281622064289e+01
9.070000000000000000e+02 5.043126855009307974e+01
9.080000000000000000e+02 5.626334270690763617e+01
9.090000000000000000e+02 5.613818890893886504e+01
9.100000000000000000e+02 1.045448208463039208e+00
9.110000000000000000e+02 1.391736508751544577e+01
9.120000000000000000e+02 3.249110288114535905e+01
9.130000000000000000e+02 1.151443598631003162e+01
9.140000000000000000e+02 3.607790202613026054e+01
9.150000000000000000e+02 1.537617524289517235e+01
9.160000000000000000e+02 1.578703891723707819e+01
9.170000000000000000e+02 3.990129239319800458e+00
9.180000000000000000e+02 1.279924360713548559e+01
9.190000000000000000e+02 6.139115226301626649e+00
9.200000000000000000e+02 9.038259150767409267e+00
9.210000000000000000e+02 2.465908389234613551e+01
9.220000000000000000e+02 2.142772666251816105e+01
9.230000000000000000e+02 6.053489697158226335e+01
9.240000000000000000e+02 1.278172498029453941e+01
9.250000000000000000e+02 2.410034104542663158e+01
9.260000000000000000e+02 7.700279451151203602e+01
9.270000000000000000e+02 1.926700236050594839e+01
9.280000000000000000e+02 6.625227948350938334e+01
9.290000000000000000e+02 2.501579885086079003e+01
9.300000000000000000e+02 1.609085653391444737e+01
9.310000000000000000e+02 3.234056639079207596e+00
9.320000000000000000e+02 1.992134669487641574e+01
9.330000000000000000e+02 4.814341522090896319e+01
9.340000000000000000e+02 6.336029464841160319e+01
9.350000000000000000e+02 3.260172301182315380e+01
9.360000000000000000e+02 2.540455167600000053e+01
9.370000000000000000e+02 2.703697324346801523e+01
9.380000000000000000e+02 5.469661767060834023e+01
9.390000000000000000e+02 1.155520894212819769e+02
9.400000000000000000e+02 1.266350799668186227e+02
9.410000000000000000e+02 1.339687509852724929e+02
9.420000000000000000e+02 1.383552884878647546e+02
9.430000000000000000e+02 8.412745424720125698e+01
9.440000000000000000e+02 9.751149844430517533e+01
9.450000000000000000e+02 1.868037275876341141e+02
9.460000000000000000e+02 2.390799034425547234e+02
9.470000000000000000e+02 2.258581781995442839e+02
9.480000000000000000e+02 2.135806552582450308e+02
9.490000000000000000e+02 2.404760332019903331e+02
9.500000000000000000e+02 2.672510241028827522e+02
9.510000000000000000e+02 2.954576276498638094e+02
9.520000000000000000e+02 3.717106243725368699e+02
9.530000000000000000e+02 3.500230565650280141e+02
9.540000000000000000e+02 3.694209451566063649e+02
9.550000000000000000e+02 4.445726269031328570e+02
9.560000000000000000e+02 4.924081563368609977e+02
9.570000000000000000e+02 5.734968891101449344e+02
9.580000000000000000e+02 6.761828888612285482e+02
9.590000000000000000e+02 8.185971268201559496e+02
9.600000000000000000e+02 9.746438884463867680e+02
9.610000000000000000e+02 1.070233622277533414e+03
9.620000000000000000e+02 1.299030284380819694e+03
9.630000000000000000e+02 1.582464262546650161e+03
9.640000000000000000e+02 1.830366836963277137e+03
9.650000000000000000e+02 2.118115008089601815e+03
9.660000000000000000e+02 2.349310839485683118e+03
9.670000000000000000e+02 2.704844525824515131e+03
9.680000000000000000e+02 3.162677422111592023e+03
9.690000000000000000e+02 3.551201785151390595e+03
9.700000000000000000e+02 3.900369815598428886e+03
9.710000000000000000e+02 4.012714451773489600e+03
9.720000000000000000e+02 3.805499751970127818e+03
9.730000000000000000e+02 3.510456210329797159e+03
9.740000000000000000e+02 3.233164210744646880e+03
9.750000000000000000e+02 2.814811206553315515e+03
9.760000000000000000e+02 2.563300366521479646e+03
9.770000000000000000e+02 2.260977750051843032e+03
9.780000000000000000e+02 2.092841656502802834e+03
9.790000000000000000e+02 1.981243051649039899e+03
9.800000000000000000e+02 1.943659295581824836e+03
9.810000000000000000e+02 2.034345077784691739e+03
9.820000000000000000e+02 2.046710553827006379e+03
9.830000000000000000e+02 2.094677080896078678e+03
9.840000000000000000e+02 2.158456111802531723e+03
9.850000000000000000e+02 2.358430837585565314e+03
9.860000000000000000e+02 2.631194779713754087e+03
9.870000000000000000e+02 2.967385279402624747e+03
9.880000000000000000e+02 3.360116757311772744e+03
9.890000000000000000e+02 3.841033458618559052e+03
9.900000000000000000e+02 4.478005370255167691e+03
9.910000000000000000e+02 5.259458168844682405e+03
9.920000000000000000e+02 6.431213979676526833e+03
9.930000000000000000e+02 7.742805594689833924e+03
9.940000000000000000e+02 9.597278502800327260e+03
9.950000000000000000e+02 1.172598593737046758e+04
9.960000000000000000e+02 1.414465051234178827e+04
9.970000000000000000e+02 1.691941602364648861e+04
9.980000000000000000e+02 2.001761427623390773e+04
9.990000000000000000e+02 2.351464077784692927e+04
1.000000000000000000e+03 2.716376680979050434e+04
1.001000000000000000e+03 3.113118941908703346e+04
1.002000000000000000e+03 3.444862448132784630e+04
1.003000000000000000e+03 3.651486717842321377e+04
1.004000000000000000e+03 3.637551786307046132e+04
1.005000000000000000e+03 3.351142649377597263e+04
1.006000000000000000e+03 2.861153807453396803e+04
1.007000000000000000e+03 2.316586195020735613e+04
1.008000000000000000e+03 1.846918128630718275e+04
1.009000000000000000e+03 1.467255377593351113e+04
1.010000000000000000e+03 1.169758858921168030e+04
1.011000000000000000e+03 9.480716547717851427e+03
1.012000000000000000e+03 7.854107047717832756e+03
1.013000000000000000e+03 6.557131535269727465e+03
1.014000000000000000e+03 5.512810095435671428e+03
1.015000000000000000e+03 4.689069759336111929e+03
1.016000000000000000e+03 3.974019597510343829e+03
1.017000000000000000e+03 3.462298771784235669e+03
1.018000000000000000e+03 3.069800182572596896e+03
1.019000000000000000e+03 2.642137858921152656e+03
1.020000000000000000e+03 2.250044630705405325e+03
1.021000000000000000e+03 1.939906429460573008e+03
1.022000000000000000e+03 1.661069869294612545e+03
1.023000000000000000e+03 1.449470074688795876e+03
1.024000000000000000e+03 1.302485294605807667e+03
1.025000000000000000e+03 1.085108045643140258e+03
1.026000000000000000e+03 9.253995456431574667e+02
1.027000000000000000e+03 8.221820190476209973e+02
1.028000000000000000e+03 7.469481224066356617e+02
1.029000000000000000e+03 6.429372568464607411e+02
1.030000000000000000e+03 5.912885373443997423e+02
1.031000000000000000e+03 5.356714265560145805e+02
1.032000000000000000e+03 4.625017356846440748e+02
1.033000000000000000e+03 4.252965763485499338e+02
1.034000000000000000e+03 3.810135937759355897e+02
1.035000000000000000e+03 3.117579478260860810e+02
1.036000000000000000e+03 3.064671257261401252e+02
1.037000000000000000e+03 2.183065441908755133e+02
1.038000000000000000e+03 2.368371035269718163e+02
1.039000000000000000e+03 2.361904070539381451e+02
1.040000000000000000e+03 2.358956203319473559e+02
1.041000000000000000e+03 2.322741149377597480e+02
1.042000000000000000e+03 1.703216066390012884e+02
1.043000000000000000e+03 1.219957062240609815e+02
1.044000000000000000e+03 7.125923950207449309e+01
1.045000000000000000e+03 8.021410215767586749e+01
1.046000000000000000e+03 5.203764116182703248e+01
1.047000000000000000e+03 1.008784831884015034e+02
1.048000000000000000e+03 1.033678505809126307e+02
1.049000000000000000e+03 1.004290189211642712e+02
1.050000000000000000e+03 8.450499373443813056e+01
1.051000000000000000e+03 1.938909792531260834e+01
1.052000000000000000e+03 1.131032946058214250e+01
1.053000000000000000e+03 4.184968607883944713e+01
1.054000000000000000e+03 7.022800825729607510e+00
1.055000000000000000e+03 1.001507724066387510e+02
1.056000000000000000e+03 4.869314826086075954e+01
1.057000000000000000e+03 3.832128404978619329e+01
1.058000000000000000e+03 2.941704026971097363e+01
1.059000000000000000e+03 7.961521402490809862e+00
1.060000000000000000e+03 2.555714848547604134e+01
1.061000000000000000e+03 9.502822686719465395e+00
1.062000000000000000e+03 5.006148923236500536e+01
1.063000000000000000e+03 2.552714145228132026e+01
1.064000000000000000e+03 2.781902478260894540e+01
1.065000000000000000e+03 7.527963767634924253e+00
1.066000000000000000e+03 1.907791219917044856e+01
1.067000000000000000e+03 3.636069709543068029e+01
1.068000000000000000e+03 3.556012186722419699e+01
1.069000000000000000e+03 1.032702081120346449e+01
1.070000000000000000e+03 5.948553769710510863e+00
1.071000000000000000e+03 7.515568064313174368e+00
1.072000000000000000e+03 2.858538521739179927e+01
1.073000000000000000e+03 6.577618721995818873e+00
1.074000000000000000e+03 9.461573182572166729e+01
1.075000000000000000e+03 3.342813357676695318e+01
1.076000000000000000e+03 1.633147849689561326e+01
1.077000000000000000e+03 3.738421761410788235e+01
1.078000000000000000e+03 3.296312755186774268e+01
1.079000000000000000e+03 4.385251035269696729e+01
1.080000000000000000e+03 8.961745709543882299e+01
1.081000000000000000e+03 1.181830759336115761e+02
1.082000000000000000e+03 3.893858174274075168e+01
1.083000000000000000e+03 2.180267240663471107e+00
1.084000000000000000e+03 6.906079560166809017e+01
1.085000000000000000e+03 1.679492041493750776e+02
1.086000000000000000e+03 1.794876203319497563e+02
1.087000000000000000e+03 1.442880585062220575e+02
1.088000000000000000e+03 1.115413267842360625e+02
1.089000000000000000e+03 7.817256286307082291e+01
1.090000000000000000e+03 6.778065842323732682e+01
1.091000000000000000e+03 5.246023668049856070e+01
1.092000000000000000e+03 6.672474672198814005e+01
1.093000000000000000e+03 1.762872439751394893e+01
1.094000000000000000e+03 8.566026620332628738e+01
1.095000000000000000e+03 6.923297589212150172e+01
1.096000000000000000e+03 5.522260190871343610e+01
1.097000000000000000e+03 4.500654701863179241e+01
1.098000000000000000e+03 1.525624209543714649e+01
1.099000000000000000e+03 5.990485244813304355e+00
1.100000000000000000e+03 2.281586946058202869e+01
1.101000000000000000e+03 6.579102294605681323e+01
1.102000000000000000e+03 1.755280836722262450e+01
1.103000000000000000e+03 2.732079120331985855e+00
1.104000000000000000e+03 3.984906645228481636e+01
1.105000000000000000e+03 6.478125792960665308e+01
1.106000000000000000e+03 4.818301381742823963e+01
1.107000000000000000e+03 5.874114842323790242e+01
1.108000000000000000e+03 6.616097020746610724e+01
1.109000000000000000e+03 7.230830373449528281e+00
1.110000000000000000e+03 3.613271987551864584e+01
1.111000000000000000e+03 3.665453188382204530e+01
1.112000000000000000e+03 3.841720058091573975e+01
1.113000000000000000e+03 1.059514400000011136e+01
1.114000000000000000e+03 2.716556087137093911e+01
1.115000000000000000e+03 6.269343443983475339e+01
1.116000000000000000e+03 4.156508066390368583e+01
1.117000000000000000e+03 7.457961254658247441e+00
1.118000000000000000e+03 4.123152363071099558e+00
1.119000000000000000e+03 1.553972481327649824e+01
1.120000000000000000e+03 1.020935577385971094e+01
1.121000000000000000e+03 3.486745871369211613e+01
1.122000000000000000e+03 6.483114523808839635e+01
1.123000000000000000e+03 1.066031446473020878e+02
1.124000000000000000e+03 9.047996842323604483e+01
1.125000000000000000e+03 5.280095443983292114e+01
1.126000000000000000e+03 5.792179398340107355e+01
1.127000000000000000e+03 6.084389278008306690e+01
1.128000000000000000e+03 5.944745790456534706e+01
1.129000000000000000e+03 6.242951595435597767e+01
1.130000000000000000e+03 5.623649713692877583e+01
1.131000000000000000e+03 7.870861908713712296e+01
1.132000000000000000e+03 7.831931257261420853e+01
1.133000000000000000e+03 8.749868232365039944e+01
1.134000000000000000e+03 1.044142958592132828e+02
1.135000000000000000e+03 8.234571607883611932e+01
1.136000000000000000e+03 1.462158825726079385e+02
1.137000000000000000e+03 1.028881056016652025e+02
1.138000000000000000e+03 4.359669091286262699e+01
1.139000000000000000e+03 8.631357983403154321e+01
1.140000000000000000e+03 1.433754008298743372e+02
1.141000000000000000e+03 1.305626901244812359e+02
1.142000000000000000e+03 4.318833012422177120e+01
1.143000000000000000e+03 4.552075840248723893e+01
1.144000000000000000e+03 7.958701192945996183e+01
1.145000000000000000e+03 9.327462443983381490e+01
1.146000000000000000e+03 4.655955695652276916e+01
1.147000000000000000e+03 7.021361958505909229e+01
1.148000000000000000e+03 7.770186639004094786e+01
1.149000000000000000e+03 4.854902593360823460e+01
1.150000000000000000e+03 5.314681651452112021e+01
1.151000000000000000e+03 1.086698836852997374e+02
1.152000000000000000e+03 1.661425396265563847e+02
1.153000000000000000e+03 1.599866217842283334e+02
1.154000000000000000e+03 1.196278917012445646e+02
1.155000000000000000e+03 1.292525763485469952e+02
1.156000000000000000e+03 6.248178900414521308e+01
1.157000000000000000e+03 7.000596477178041255e+01
1.158000000000000000e+03 1.197339995850615111e+02
1.159000000000000000e+03 1.737814614107921329e+02
1.160000000000000000e+03 1.710956609958514605e+02
1.161000000000000000e+03 9.812565688796985341e+01
1.162000000000000000e+03 7.836177315352811945e+01
1.163000000000000000e+03 1.079507031055858874e+02
1.164000000000000000e+03 5.814700107886530134e+00
1.165000000000000000e+03 1.509979999999999905e+02
1.166000000000000000e+03 9.450479850622259903e+01
1.167000000000000000e+03 9.677188807453212860e+01
1.168000000000000000e+03 1.120380446058088637e+02
1.169000000000000000e+03 1.187150690871370387e+02
1.170000000000000000e+03 1.242503931535270283e+02
1.171000000000000000e+03 1.013209575569387937e+02
1.172000000000000000e+03 4.788231348547628130e+01
1.173000000000000000e+03 4.230743742739102231e+01
1.174000000000000000e+03 1.005382481327776105e+02
1.175000000000000000e+03 1.074196570393371672e+02
1.176000000000000000e+03 1.440017881742753048e+02
1.177000000000000000e+03 1.166088035269740999e+02
1.178000000000000000e+03 9.880945850622484272e+01
1.179000000000000000e+03 7.332516445134591265e+01
1.180000000000000000e+03 1.118968419087153165e+02
1.181000000000000000e+03 6.099750290457148338e+01
1.182000000000000000e+03 5.325431526970812968e+01
1.183000000000000000e+03 7.761430883817108395e+01
1.184000000000000000e+03 2.403105790456689661e+01
1.185000000000000000e+03 1.353189582987554296e+01
1.186000000000000000e+03 4.770387732365341549e+01
1.187000000000000000e+03 1.278588908713703773e+02
1.188000000000000000e+03 6.083632419087509646e+01
1.189000000000000000e+03 6.962037966804976463e+01
1.190000000000000000e+03 1.324838124481363195e+02
1.191000000000000000e+03 1.075262987551920162e+02
1.192000000000000000e+03 1.596998186721978925e+02
1.193000000000000000e+03 1.712698580912839930e+02
1.194000000000000000e+03 9.432826535269181534e+01
1.195000000000000000e+03 3.887323522821581179e+01
1.196000000000000000e+03 3.995481674948239004e+01
1.197000000000000000e+03 4.236921037344380636e+01
1.198000000000000000e+03 4.671023875518466184e+01
1.199000000000000000e+03 6.173236053941934642e+01
1.200000000000000000e+03 2.655429229813530867e+01
1.201000000000000000e+03 1.626584429460557502e+01
1.202000000000000000e+03 4.626061526970740800e+01
1.203000000000000000e+03 7.660965535269723148e+01
1.204000000000000000e+03 7.077759598343453717e+01
1.205000000000000000e+03 1.083689035684595012e+02
1.206000000000000000e+03 1.332108614107891356e+02
1.207000000000000000e+03 5.052209265559778828e+01
1.208000000000000000e+03 3.027404380952617657e+01
1.209000000000000000e+03 8.600131109958483933e+01
1.210000000000000000e+03 7.039990912863001427e+01
1.211000000000000000e+03 4.631697439834037056e+01
1.212000000000000000e+03 5.157128280083136218e+01
1.213000000000000000e+03 8.970362468879667261e+00
1.214000000000000000e+03 1.408760448133029186e+01
1.215000000000000000e+03 4.958240510373305199e+01
1.216000000000000000e+03 8.899367224066182303e+01
1.217000000000000000e+03 1.454504912863096422e+02
1.218000000000000000e+03 6.456228006222472970e+01
1.219000000000000000e+03 1.710741346472048008e+01
1.220000000000000000e+03 9.511821060166062125e+01
1.221000000000000000e+03 2.153377504978884360e+01
1.222000000000000000e+03 2.039884262239465329e+01
1.223000000000000000e+03 1.110889431120360626e+02
1.224000000000000000e+03 1.570711170124621958e+01
1.225000000000000000e+03 1.334092732091109923e+01
1.226000000000000000e+03 6.716752908713303327e+01
1.227000000000000000e+03 9.794790639004150989e+01
1.228000000000000000e+03 8.144007883817236859e+01
1.229000000000000000e+03 2.868937225673066393e+01
1.230000000000000000e+03 3.859833311203212247e+01
1.231000000000000000e+03 5.291612029045538179e+01
1.232000000000000000e+03 5.933869120332430214e+01
1.233000000000000000e+03 1.276455041493757108e+02
1.234000000000000000e+03 1.223751421784205178e+02
1.235000000000000000e+03 2.199249325726464122e+01
1.236000000000000000e+03 6.768353016597686178e+01
1.237000000000000000e+03 3.406569024844732496e+01
1.238000000000000000e+03 6.109061269709658148e+01
1.239000000000000000e+03 5.338593178423217012e+01
1.240000000000000000e+03 1.036000767635049691e+01
1.241000000000000000e+03 2.782140391304462668e+01
1.242000000000000000e+03 1.616038999999607384e+01
1.243000000000000000e+03 2.061481639004007604e+01
1.244000000000000000e+03 5.042474022821585322e+01
1.245000000000000000e+03 2.659326228215662979e+01
1.246000000000000000e+03 5.795416572613267370e+00
1.247000000000000000e+03 8.955264564315390530e+00
1.248000000000000000e+03 3.394448904564471547e+01
1.249000000000000000e+03 6.868788394190494273e+01
1.250000000000000000e+03 1.465734081950389367e+01
1.251000000000000000e+03 1.231540847095447866e+01
1.252000000000000000e+03 5.833798149377862785e+01
1.253000000000000000e+03 6.686326917012441129e+01
1.254000000000000000e+03 3.128473033195106012e+01
1.255000000000000000e+03 5.654969680497957008e+00
1.256000000000000000e+03 1.727549796680972705e+01
1.257000000000000000e+03 4.418691576763465179e+01
1.258000000000000000e+03 6.822302468879746584e+01
1.259000000000000000e+03 8.830596802904469200e+01
1.260000000000000000e+03 5.339082964730141612e+01
1.261000000000000000e+03 7.373218551867105930e+01
1.262000000000000000e+03 8.570157286306634603e+01
1.263000000000000000e+03 2.707920746888285635e+01
1.264000000000000000e+03 1.113644809128623052e+02
1.265000000000000000e+03 5.289149813277939671e+01
1.266000000000000000e+03 6.446627275362682497e+01
1.267000000000000000e+03 1.088015114107860626e+02
1.268000000000000000e+03 5.272125313278131387e+01
1.269000000000000000e+03 5.275948294606158129e+01
1.270000000000000000e+03 4.118808000000421998e+01
1.271000000000000000e+03 1.530454078008250818e+01
1.272000000000000000e+03 7.026603377593542632e+01
1.273000000000000000e+03 9.381991319501368309e+01
1.274000000000000000e+03 4.202258739130058984e+01
1.275000000000000000e+03 7.477371404564308932e+01
1.276000000000000000e+03 5.977873228216036239e+01
1.277000000000000000e+03 9.234387242738924328e+01
1.278000000000000000e+03 3.674162860995888735e+01
1.279000000000000000e+03 7.394538136929530481e+01
1.280000000000000000e+03 2.018180144398477083e+01
1.281000000000000000e+03 6.607702464729690917e+01
1.282000000000000000e+03 7.260258597510397749e+01
1.283000000000000000e+03 1.025864087136986740e+02
1.284000000000000000e+03 5.143439607885041909e+01
1.285000000000000000e+03 3.507566487136752897e+01
1.286000000000000000e+03 8.699240489626566841e+01
1.287000000000000000e+03 4.229653082987709212e+01
1.288000000000000000e+03 2.916527937759420652e+01
1.289000000000000000e+03 4.092333365145334056e+01
1.290000000000000000e+03 1.208891809128623294e+02
1.291000000000000000e+03 1.001018590248936420e+02
1.292000000000000000e+03 1.494617014522819716e+02
1.293000000000000000e+03 1.041465869709512617e+02
1.294000000000000000e+03 5.007644622406711221e+01
1.295000000000000000e+03 5.584656480331110373e+01
1.296000000000000000e+03 1.516800265560192429e+02
1.297000000000000000e+03 7.190889755184983301e+01
1.298000000000000000e+03 1.002250575933476995e+02
1.299000000000000000e+03 1.057019919254657907e+02
1.300000000000000000e+03 8.243961462656334049e+01
1.301000000000000000e+03 1.229655843361136078e+02
1.302000000000000000e+03 3.248688794605809704e+01
1.303000000000000000e+03 2.514741761904682349e+01
1.304000000000000000e+03 2.041502099584925123e+00
1.305000000000000000e+03 1.269576641493646640e+01
1.306000000000000000e+03 3.731174643153503467e+01
1.307000000000000000e+03 7.976575037344309749e+01
1.308000000000000000e+03 0.000000000000000000e+00
1.309000000000000000e+03 0.000000000000000000e+00
1.310000000000000000e+03 0.000000000000000000e+00
1.311000000000000000e+03 0.000000000000000000e+00
1.312000000000000000e+03 0.000000000000000000e+00
1.313000000000000000e+03 0.000000000000000000e+00
1.314000000000000000e+03 0.000000000000000000e+00
1.315000000000000000e+03 0.000000000000000000e+00
1.316000000000000000e+03 0.000000000000000000e+00
1.317000000000000000e+03 0.000000000000000000e+00
1.318000000000000000e+03 0.000000000000000000e+00
1.319000000000000000e+03 0.000000000000000000e+00
1.320000000000000000e+03 0.000000000000000000e+00
1.321000000000000000e+03 0.000000000000000000e+00
1.322000000000000000e+03 0.000000000000000000e+00
1.323000000000000000e+03 0.000000000000000000e+00
1.324000000000000000e+03 0.000000000000000000e+00
1.325000000000000000e+03 0.000000000000000000e+00
1.326000000000000000e+03 0.000000000000000000e+00
1.327000000000000000e+03 0.000000000000000000e+00
1.328000000000000000e+03 0.000000000000000000e+00
1.329000000000000000e+03 0.000000000000000000e+00
1.330000000000000000e+03 0.000000000000000000e+00
1.331000000000000000e+03 0.000000000000000000e+00
1.332000000000000000e+03 0.000000000000000000e+00
1.333000000000000000e+03 0.000000000000000000e+00
1.334000000000000000e+03 0.000000000000000000e+00
1.335000000000000000e+03 0.000000000000000000e+00
1.336000000000000000e+03 0.000000000000000000e+00
1.337000000000000000e+03 0.000000000000000000e+00
1.338000000000000000e+03 0.000000000000000000e+00
1.339000000000000000e+03 0.000000000000000000e+00
1.340000000000000000e+03 0.000000000000000000e+00
1.341000000000000000e+03 0.000000000000000000e+00
1.342000000000000000e+03 0.000000000000000000e+00
1.343000000000000000e+03 0.000000000000000000e+00
1.344000000000000000e+03 0.000000000000000000e+00
1.345000000000000000e+03 0.000000000000000000e+00
1.346000000000000000e+03 0.000000000000000000e+00
1.347000000000000000e+03 0.000000000000000000e+00
1.348000000000000000e+03 0.000000000000000000e+00
1.349000000000000000e+03 0.000000000000000000e+00
1.350000000000000000e+03 0.000000000000000000e+00
1.351000000000000000e+03 0.000000000000000000e+00
1.352000000000000000e+03 0.000000000000000000e+00
1.353000000000000000e+03 0.000000000000000000e+00
1.354000000000000000e+03 0.000000000000000000e+00
1.355000000000000000e+03 0.000000000000000000e+00
1.356000000000000000e+03 0.000000000000000000e+00
1.357000000000000000e+03 0.000000000000000000e+00
1.358000000000000000e+03 0.000000000000000000e+00
1.359000000000000000e+03 0.000000000000000000e+00
1.360000000000000000e+03 0.000000000000000000e+00
1.361000000000000000e+03 0.000000000000000000e+00
1.362000000000000000e+03 0.000000000000000000e+00
1.363000000000000000e+03 0.000000000000000000e+00
1.364000000000000000e+03 0.000000000000000000e+00
1.365000000000000000e+03 0.000000000000000000e+00
1.366000000000000000e+03 0.000000000000000000e+00
1.367000000000000000e+03 0.000000000000000000e+00
1.368000000000000000e+03 0.000000000000000000e+00
1.369000000000000000e+03 0.000000000000000000e+00
1.370000000000000000e+03 0.000000000000000000e+00
1.371000000000000000e+03 0.000000000000000000e+00
1.372000000000000000e+03 0.000000000000000000e+00
1.373000000000000000e+03 0.000000000000000000e+00
1.374000000000000000e+03 0.000000000000000000e+00
1.375000000000000000e+03 0.000000000000000000e+00
1.376000000000000000e+03 0.000000000000000000e+00
1.377000000000000000e+03 0.000000000000000000e+00
1.378000000000000000e+03 0.000000000000000000e+00
1.379000000000000000e+03 0.000000000000000000e+00
1.380000000000000000e+03 0.000000000000000000e+00
1.381000000000000000e+03 0.000000000000000000e+00
1.382000000000000000e+03 0.000000000000000000e+00
1.383000000000000000e+03 0.000000000000000000e+00
1.384000000000000000e+03 0.000000000000000000e+00
1.385000000000000000e+03 0.000000000000000000e+00
1.386000000000000000e+03 0.000000000000000000e+00
1.387000000000000000e+03 0.000000000000000000e+00
1.388000000000000000e+03 0.000000000000000000e+00
1.389000000000000000e+03 0.000000000000000000e+00
1.390000000000000000e+03 0.000000000000000000e+00
1.391000000000000000e+03 0.000000000000000000e+00
1.392000000000000000e+03 0.000000000000000000e+00
1.393000000000000000e+03 0.000000000000000000e+00
1.394000000000000000e+03 0.000000000000000000e+00
1.395000000000000000e+03 0.000000000000000000e+00
1.396000000000000000e+03 0.000000000000000000e+00
1.397000000000000000e+03 0.000000000000000000e+00
1.398000000000000000e+03 0.000000000000000000e+00
1.399000000000000000e+03 0.000000000000000000e+00
1.400000000000000000e+03 0.000000000000000000e+00
1.401000000000000000e+03 0.000000000000000000e+00
1.402000000000000000e+03 0.000000000000000000e+00
1.403000000000000000e+03 0.000000000000000000e+00
1.404000000000000000e+03 0.000000000000000000e+00
1.405000000000000000e+03 0.000000000000000000e+00
1.406000000000000000e+03 0.000000000000000000e+00
1.407000000000000000e+03 0.000000000000000000e+00
1.408000000000000000e+03 0.000000000000000000e+00
1.409000000000000000e+03 0.000000000000000000e+00
1.410000000000000000e+03 0.000000000000000000e+00
1.411000000000000000e+03 0.000000000000000000e+00
1.412000000000000000e+03 0.000000000000000000e+00
1.413000000000000000e+03 0.000000000000000000e+00
1.414000000000000000e+03 0.000000000000000000e+00
1.415000000000000000e+03 0.000000000000000000e+00
1.416000000000000000e+03 0.000000000000000000e+00
1.417000000000000000e+03 0.000000000000000000e+00
1.418000000000000000e+03 0.000000000000000000e+00
1.419000000000000000e+03 0.000000000000000000e+00
1.420000000000000000e+03 0.000000000000000000e+00
1.421000000000000000e+03 0.000000000000000000e+00
1.422000000000000000e+03 0.000000000000000000e+00
1.423000000000000000e+03 0.000000000000000000e+00
1.424000000000000000e+03 0.000000000000000000e+00
1.425000000000000000e+03 0.000000000000000000e+00
1.426000000000000000e+03 0.000000000000000000e+00
1.427000000000000000e+03 0.000000000000000000e+00
1.428000000000000000e+03 0.000000000000000000e+00
1.429000000000000000e+03 0.000000000000000000e+00
1.430000000000000000e+03 0.000000000000000000e+00
1.431000000000000000e+03 0.000000000000000000e+00
1.432000000000000000e+03 0.000000000000000000e+00
1.433000000000000000e+03 0.000000000000000000e+00
1.434000000000000000e+03 0.000000000000000000e+00
1.435000000000000000e+03 0.000000000000000000e+00
1.436000000000000000e+03 0.000000000000000000e+00
1.437000000000000000e+03 0.000000000000000000e+00
1.438000000000000000e+03 0.000000000000000000e+00
1.439000000000000000e+03 0.000000000000000000e+00
1.440000000000000000e+03 0.000000000000000000e+00
1.441000000000000000e+03 0.000000000000000000e+00
1.442000000000000000e+03 0.000000000000000000e+00
1.443000000000000000e+03 0.000000000000000000e+00
1.444000000000000000e+03 0.000000000000000000e+00
1.445000000000000000e+03 0.000000000000000000e+00
1.446000000000000000e+03 0.000000000000000000e+00
1.447000000000000000e+03 0.000000000000000000e+00
1.448000000000000000e+03 0.000000000000000000e+00
1.449000000000000000e+03 0.000000000000000000e+00
1.450000000000000000e+03 0.000000000000000000e+00
1.451000000000000000e+03 0.000000000000000000e+00
1.452000000000000000e+03 0.000000000000000000e+00
1.453000000000000000e+03 0.000000000000000000e+00
1.454000000000000000e+03 0.000000000000000000e+00
1.455000000000000000e+03 0.000000000000000000e+00
1.456000000000000000e+03 0.000000000000000000e+00
1.457000000000000000e+03 0.000000000000000000e+00
1.458000000000000000e+03 0.000000000000000000e+00
1.459000000000000000e+03 0.000000000000000000e+00
1.460000000000000000e+03 0.000000000000000000e+00
1.461000000000000000e+03 0.000000000000000000e+00
1.462000000000000000e+03 0.000000000000000000e+00
1.463000000000000000e+03 0.000000000000000000e+00
1.464000000000000000e+03 0.000000000000000000e+00
1.465000000000000000e+03 0.000000000000000000e+00
1.466000000000000000e+03 0.000000000000000000e+00
1.467000000000000000e+03 0.000000000000000000e+00
1.468000000000000000e+03 0.000000000000000000e+00
1.469000000000000000e+03 0.000000000000000000e+00
1.470000000000000000e+03 0.000000000000000000e+00
1.471000000000000000e+03 0.000000000000000000e+00
1.472000000000000000e+03 0.000000000000000000e+00
1.473000000000000000e+03 0.000000000000000000e+00
1.474000000000000000e+03 0.000000000000000000e+00
1.475000000000000000e+03 0.000000000000000000e+00
1.476000000000000000e+03 0.000000000000000000e+00
1.477000000000000000e+03 0.000000000000000000e+00
1.478000000000000000e+03 0.000000000000000000e+00
1.479000000000000000e+03 0.000000000000000000e+00
1.480000000000000000e+03 0.000000000000000000e+00
1.481000000000000000e+03 0.000000000000000000e+00
1.482000000000000000e+03 0.000000000000000000e+00
1.483000000000000000e+03 0.000000000000000000e+00
1.484000000000000000e+03 0.000000000000000000e+00
1.485000000000000000e+03 0.000000000000000000e+00
1.486000000000000000e+03 0.000000000000000000e+00
1.487000000000000000e+03 0.000000000000000000e+00
1.488000000000000000e+03 0.000000000000000000e+00
1.489000000000000000e+03 0.000000000000000000e+00
1.490000000000000000e+03 0.000000000000000000e+00
1.491000000000000000e+03 0.000000000000000000e+00
1.492000000000000000e+03 0.000000000000000000e+00
1.493000000000000000e+03 0.000000000000000000e+00
1.494000000000000000e+03 0.000000000000000000e+00
1.495000000000000000e+03 0.000000000000000000e+00
1.496000000000000000e+03 0.000000000000000000e+00
1.497000000000000000e+03 0.000000000000000000e+00
1.498000000000000000e+03 0.000000000000000000e+00
1.499000000000000000e+03 0.000000000000000000e+00
1.500000000000000000e+03 0.000000000000000000e+00
