1.010000000000000000e+02 0.000000000000000000e+00
1.020000000000000000e+02 0.000000000000000000e+00
1.030000000000000000e+02 0.000000000000000000e+00
1.040000000000000000e+02 0.000000000000000000e+00
1.050000000000000000e+02 0.000000000000000000e+00
1.060000000000000000e+02 0.000000000000000000e+00
1.070000000000000000e+02 0.000000000000000000e+00
1.080000000000000000e+02 0.000000000000000000e+00
1.090000000000000000e+02 0.000000000000000000e+00
1.100000000000000000e+02 0.000000000000000000e+00
1.110000000000000000e+02 0.000000000000000000e+00
1.120000000000000000e+02 0.000000000000000000e+00
1.130000000000000000e+02 0.000000000000000000e+00
1.140000000000000000e+02 0.000000000000000000e+00
1.150000000000000000e+02 0.000000000000000000e+00
1.160000000000000000e+02 0.000000000000000000e+00
1.170000000000000000e+02 0.000000000000000000e+00
1.180000000000000000e+02 0.000000000000000000e+00
1.190000000000000000e+02 0.000000000000000000e+00
1.200000000000000000e+02 0.000000000000000000e+00
1.210000000000000000e+02 0.000000000000000000e+00
1.220000000000000000e+02 0.000000000000000000e+00
1.230000000000000000e+02 0.000000000000000000e+00
1.240000000000000000e+02 0.000000000000000000e+00
1.250000000000000000e+02 0.000000000000000000e+00
1.260000000000000000e+02 0.000000000000000000e+00
1.270000000000000000e+02 0.000000000000000000e+00
1.280000000000000000e+02 0.000000000000000000e+00
1.290000000000000000e+02 0.000000000000000000e+00
1.300000000000000000e+02 0.000000000000000000e+00
1.310000000000000000e+02 3.290655376477927518e+01
1.320000000000000000e+02 2.413406032773268350e+01
1.330000000000000000e+02 1.118492573662374490e+01
1.340000000000000000e+02 1.059491199751115964e+01
1.350000000000000000e+02 4.998802590541492918e+01
1.360000000000000000e+02 1.410027428867693402e+02
1.370000000000000000e+02 2.421836790292467754e+02
1.380000000000000000e+02 3.970863250777833855e+02
1.390000000000000000e+02 5.440692428452936156e+02
1.400000000000000000e+02 7.428334048537662966e+02
1.410000000000000000e+02 1.004026823688031641e+03
1.420000000000000000e+02 1.228513184816426019e+03
1.430000000000000000e+02 1.554402985065336225e+03
1.440000000000000000e+02 1.903788348475423390e+03
1.450000000000000000e+02 2.220021382700684626e+03
1.460000000000000000e+02 2.479127304086287950e+03
1.470000000000000000e+02 2.667191137938185420e+03
1.480000000000000000e+02 2.825599480605685130e+03
1.490000000000000000e+02 3.013757007467331732e+03
1.500000000000000000e+02 3.247211924704417925e+03
1.510000000000000000e+02 3.362733968263844872e+03
1.520000000000000000e+02 3.329188280024889991e+03
1.530000000000000000e+02 3.256985136278779919e+03
1.540000000000000000e+02 3.272394500311138472e+03
1.550000000000000000e+02 3.505469457788838554e+03
1.560000000000000000e+02 3.803586607839068165e+03
1.570000000000000000e+02 4.201308334163039945e+03
1.580000000000000000e+02 4.694148768512757670e+03
1.590000000000000000e+02 5.198316498444302852e+03
1.600000000000000000e+02 5.586818142708977575e+03
1.610000000000000000e+02 5.861880577680981332e+03
1.620000000000000000e+02 5.910018026135656328e+03
1.630000000000000000e+02 5.615794566272558768e+03
1.640000000000000000e+02 5.169543231279822066e+03
1.650000000000000000e+02 4.694713789877613635e+03
1.660000000000000000e+02 4.317014499896285088e+03
1.670000000000000000e+02 4.145681868077162108e+03
1.680000000000000000e+02 4.261420260734285876e+03
1.690000000000000000e+02 4.529742398050200791e+03
1.700000000000000000e+02 4.821159085649110239e+03
1.710000000000000000e+02 5.011309967641567710e+03
1.720000000000000000e+02 5.005385681393901905e+03
1.730000000000000000e+02 4.981055921609290635e+03
1.740000000000000000e+02 5.041162284795686901e+03
1.750000000000000000e+02 5.232385000622278312e+03
1.760000000000000000e+02 5.548675086271255168e+03
1.770000000000000000e+02 5.918906869321713202e+03
1.780000000000000000e+02 6.353952607965157767e+03
1.790000000000000000e+02 6.842429714641229111e+03
1.800000000000000000e+02 7.358987682431029498e+03
1.810000000000000000e+02 7.884850611076535642e+03
1.820000000000000000e+02 8.262400976353457736e+03
1.830000000000000000e+02 8.570841904791539491e+03
1.840000000000000000e+02 8.793725600497820778e+03
1.850000000000000000e+02 8.718130479361130710e+03
1.860000000000000000e+02 8.303349202240200611e+03
1.870000000000000000e+02 7.708673663140421013e+03
1.880000000000000000e+02 6.975366023646545727e+03
1.890000000000000000e+02 6.052972034640120910e+03
1.900000000000000000e+02 5.190779846919735064e+03
1.910000000000000000e+02 4.518206756689478425e+03
1.920000000000000000e+02 3.993643809375646470e+03
1.930000000000000000e+02 3.558857374948156121e+03
1.940000000000000000e+02 3.324783242895666717e+03
1.950000000000000000e+02 3.171991533914124375e+03
1.960000000000000000e+02 3.110037758556316021e+03
1.970000000000000000e+02 3.119308079029247438e+03
1.980000000000000000e+02 3.085521447832399645e+03
1.990000000000000000e+02 3.214379672059741097e+03
2.000000000000000000e+02 3.369146052271313692e+03
2.010000000000000000e+02 3.575425855424186011e+03
2.020000000000000000e+02 3.969009242688235645e+03
2.030000000000000000e+02 4.346217422319023171e+03
2.040000000000000000e+02 4.826379482887373342e+03
2.050000000000000000e+02 5.357145635345365008e+03
2.060000000000000000e+02 5.831984488487863928e+03
2.070000000000000000e+02 6.205282975523747155e+03
2.080000000000000000e+02 6.490012427297241629e+03
2.090000000000000000e+02 6.374666626011198787e+03
2.100000000000000000e+02 5.758724727498964967e+03
2.110000000000000000e+02 4.794520422941309334e+03
2.120000000000000000e+02 3.729365308234793247e+03
2.130000000000000000e+02 2.757062825591035562e+03
2.140000000000000000e+02 1.990453865588053304e+03
2.150000000000000000e+02 1.455182766023649720e+03
2.160000000000000000e+02 1.046683724595602598e+03
2.170000000000000000e+02 7.469008312590730156e+02
2.180000000000000000e+02 5.510670442439325143e+02
2.190000000000000000e+02 4.138025537536301499e+02
2.200000000000000000e+02 2.441773501140862095e+02
2.210000000000000000e+02 1.578199895457368029e+02
2.220000000000000000e+02 1.067561400788217298e+02
2.230000000000000000e+02 4.708340445924119422e+01
2.240000000000000000e+02 3.673523583074008769e+01
2.250000000000000000e+02 6.178126133997115232e+01
2.260000000000000000e+02 9.394746367973468182e+01
2.270000000000000000e+02 1.046950826939030179e+02
2.280000000000000000e+02 8.575297450528924514e+01
2.290000000000000000e+02 1.237126720804812692e+02
2.300000000000000000e+02 1.371967048112816201e+02
2.310000000000000000e+02 1.375050092719352790e+02
2.320000000000000000e+02 1.376971411947728541e+02
2.330000000000000000e+02 1.364006109290750430e+02
2.340000000000000000e+02 1.338806368803152509e+02
2.350000000000000000e+02 1.127071099668117711e+02
2.360000000000000000e+02 7.508693881974723183e+01
2.370000000000000000e+02 3.021730455507203317e+01
2.380000000000000000e+02 7.730600718730931575e+00
2.390000000000000000e+02 3.468536352209093820e+01
2.400000000000000000e+02 9.652105825762257041e+01
2.410000000000000000e+02 1.871001485376471862e+02
2.420000000000000000e+02 2.527659583074058673e+02
2.430000000000000000e+02 3.306488154739685683e+02
2.440000000000000000e+02 4.388786714374611506e+02
2.450000000000000000e+02 5.622900867454874287e+02
2.460000000000000000e+02 6.872841876789059370e+02
2.470000000000000000e+02 8.299356258037764746e+02
2.480000000000000000e+02 1.046629061709189045e+03
2.490000000000000000e+02 1.232920977390582266e+03
2.500000000000000000e+02 1.358662282040646005e+03
2.510000000000000000e+02 1.464804125700062514e+03
2.520000000000000000e+02 1.447892407799211469e+03
2.530000000000000000e+02 1.300330539195355414e+03
2.540000000000000000e+02 1.070597276042317844e+03
2.550000000000000000e+02 8.368944418170480049e+02
2.560000000000000000e+02 6.813458000829526782e+02
2.570000000000000000e+02 6.433555267371914397e+02
2.580000000000000000e+02 6.471616855216759632e+02
2.590000000000000000e+02 6.699191674823726999e+02
2.600000000000000000e+02 7.459111065339146762e+02
2.610000000000000000e+02 8.452961153909978975e+02
2.620000000000000000e+02 9.868010769549919132e+02
2.630000000000000000e+02 1.136157025513380859e+03
2.640000000000000000e+02 1.266827031736155732e+03
2.650000000000000000e+02 1.422664840696947977e+03
2.660000000000000000e+02 1.636130206596147218e+03
2.670000000000000000e+02 1.829767127981749354e+03
2.680000000000000000e+02 1.974873069695081540e+03
2.690000000000000000e+02 2.083908069695082304e+03
2.700000000000000000e+02 2.102667692594897289e+03
2.710000000000000000e+02 2.104850174237710235e+03
2.720000000000000000e+02 2.096161828043974765e+03
2.730000000000000000e+02 2.116728207218417992e+03
2.740000000000000000e+02 2.285403925948973210e+03
2.750000000000000000e+02 2.514411368180873978e+03
2.760000000000000000e+02 2.863759226876809407e+03
2.770000000000000000e+02 3.303995118025309239e+03
2.780000000000000000e+02 3.767309134411948889e+03
2.790000000000000000e+02 4.316030603069267272e+03
2.800000000000000000e+02 4.949911143331270068e+03
2.810000000000000000e+02 5.783307121941100377e+03
2.820000000000000000e+02 6.784692005600471930e+03
2.830000000000000000e+02 7.773987815183598286e+03
2.840000000000000000e+02 8.957496854002487453e+03
2.850000000000000000e+02 1.018463294212816800e+04
2.860000000000000000e+02 1.140333363617503892e+04
2.870000000000000000e+02 1.263283515968476968e+04
2.880000000000000000e+02 1.379443354075916795e+04
2.890000000000000000e+02 1.464877747562745753e+04
2.900000000000000000e+02 1.481901564820576459e+04
2.910000000000000000e+02 1.408784275046670882e+04
2.920000000000000000e+02 1.242225905413815963e+04
2.930000000000000000e+02 1.017292913378963931e+04
2.940000000000000000e+02 7.964203453640307089e+03
2.950000000000000000e+02 6.043806630989416590e+03
2.960000000000000000e+02 4.521722987554421707e+03
2.970000000000000000e+02 3.486394381456114843e+03
2.980000000000000000e+02 2.717635060775764941e+03
2.990000000000000000e+02 2.153093351586820518e+03
3.000000000000000000e+02 1.732736646961201359e+03
3.010000000000000000e+02 1.398464782202856441e+03
3.020000000000000000e+02 1.163885583696332333e+03
3.030000000000000000e+02 9.610545695706324523e+02
3.040000000000000000e+02 8.214398148071360310e+02
3.050000000000000000e+02 7.404359308234812715e+02
3.060000000000000000e+02 6.716200540759183468e+02
3.070000000000000000e+02 6.513614002903361779e+02
3.080000000000000000e+02 6.022396071354490914e+02
3.090000000000000000e+02 5.594588685542418034e+02
3.100000000000000000e+02 5.513446443799252847e+02
3.110000000000000000e+02 5.197661644679525352e+02
3.120000000000000000e+02 5.338365836341008617e+02
3.130000000000000000e+02 5.474114788262131697e+02
3.140000000000000000e+02 5.658715467745287242e+02
3.150000000000000000e+02 6.176973971997517765e+02
3.160000000000000000e+02 6.617943225264451712e+02
3.170000000000000000e+02 7.379156184816454243e+02
3.180000000000000000e+02 8.505310389338338837e+02
3.190000000000000000e+02 9.894488896494480059e+02
3.200000000000000000e+02 1.146069830740505950e+03
3.210000000000000000e+02 1.365900383530386534e+03
3.220000000000000000e+02 1.609215609417131418e+03
3.230000000000000000e+02 1.860862632233973045e+03
3.240000000000000000e+02 2.131849626011195596e+03
3.250000000000000000e+02 2.451792985065339508e+03
3.260000000000000000e+02 2.771550003318811832e+03
3.270000000000000000e+02 3.106824120306986060e+03
3.280000000000000000e+02 3.322030405310102651e+03
3.290000000000000000e+02 3.244450378967018423e+03
3.300000000000000000e+02 2.754018911862297955e+03
3.310000000000000000e+02 2.117603619788414107e+03
3.320000000000000000e+02 1.557939189379791060e+03
3.330000000000000000e+02 1.140435534218167277e+03
3.340000000000000000e+02 8.304558527691286827e+02
3.350000000000000000e+02 6.547455908525171253e+02
3.360000000000000000e+02 5.048727999999999838e+02
3.370000000000000000e+02 3.939162212611507243e+02
3.380000000000000000e+02 3.406767962041080864e+02
3.390000000000000000e+02 3.154568893405225936e+02
3.400000000000000000e+02 3.037802402198714731e+02
3.410000000000000000e+02 3.121268969508397504e+02
3.420000000000000000e+02 3.139037937785151371e+02
3.430000000000000000e+02 2.913205294959552702e+02
3.440000000000000000e+02 2.779651326280854846e+02
3.450000000000000000e+02 2.786961455714583167e+02
3.460000000000000000e+02 2.973168912051443158e+02
3.470000000000000000e+02 3.135375629744866046e+02
3.480000000000000000e+02 3.025077509023020639e+02
3.490000000000000000e+02 2.764106893590537197e+02
3.500000000000000000e+02 2.396514870178353078e+02
3.510000000000000000e+02 1.775779480398253156e+02
3.520000000000000000e+02 1.171662859365268474e+02
3.530000000000000000e+02 9.357634282514035817e+01
3.540000000000000000e+02 6.340155935283202382e+01
3.550000000000000000e+02 3.507183021364930653e+01
3.560000000000000000e+02 2.220618400124458702e+01
3.570000000000000000e+02 1.737799533416326625e+01
3.580000000000000000e+02 4.598559626710503889e-01
3.590000000000000000e+02 5.231833094793651995e-01
3.600000000000000000e+02 1.207297704833016638e+01
3.610000000000000000e+02 2.146982608875985221e+01
3.620000000000000000e+02 2.076092887990051139e+01
3.630000000000000000e+02 2.902436005807927444e+01
3.640000000000000000e+02 2.920243729780171549e+01
3.650000000000000000e+02 3.161681670815194778e+01
3.660000000000000000e+02 3.089830067828241411e+01
3.670000000000000000e+02 2.303807416009965081e+01
3.680000000000000000e+02 1.732903216967437032e+01
3.690000000000000000e+02 4.729471833644562651e+01
3.700000000000000000e+02 5.861805840282114843e+01
3.710000000000000000e+02 4.189890008711959268e+01
3.720000000000000000e+02 1.221353523584350675e+01
3.730000000000000000e+02 5.464308937357397866e+00
3.740000000000000000e+02 7.221966368595685637e+00
3.750000000000000000e+02 1.489981488487841332e+01
3.760000000000000000e+02 1.136305776540128321e+01
3.770000000000000000e+02 1.934536744451353130e+01
3.780000000000000000e+02 2.911084274424392504e+01
3.790000000000000000e+02 1.882655244555051866e+01
3.800000000000000000e+02 1.795111076540143102e+01
3.810000000000000000e+02 3.472445711263225121e+01
3.820000000000000000e+02 5.316405413607166963e+01
3.830000000000000000e+02 5.712717856668743366e+01
3.840000000000000000e+02 6.980375038987985192e+01
3.850000000000000000e+02 8.583609039825731202e+01
3.860000000000000000e+02 1.136010173615445922e+02
3.870000000000000000e+02 1.662329352965577129e+02
3.880000000000000000e+02 1.829519093134202308e+02
3.890000000000000000e+02 1.997230946484124843e+02
3.900000000000000000e+02 2.568583740356708063e+02
3.910000000000000000e+02 3.440719399709596473e+02
3.920000000000000000e+02 4.275254920141033494e+02
3.930000000000000000e+02 5.975163810659471437e+02
3.940000000000000000e+02 6.810365087118854035e+02
3.950000000000000000e+02 7.185627399087322829e+02
3.960000000000000000e+02 7.855351630443808517e+02
3.970000000000000000e+02 9.079214383115546525e+02
3.980000000000000000e+02 1.040813355942750604e+03
3.990000000000000000e+02 1.085054777224642294e+03
4.000000000000000000e+02 1.094143264882804942e+03
4.010000000000000000e+02 1.117290758971167861e+03
4.020000000000000000e+02 1.124785812072184171e+03
4.030000000000000000e+02 1.134115557560672869e+03
4.040000000000000000e+02 1.217034257000624621e+03
4.050000000000000000e+02 1.339544596141877037e+03
4.060000000000000000e+02 1.462226641568136074e+03
4.070000000000000000e+02 1.603582405724954924e+03
4.080000000000000000e+02 1.602008791537026127e+03
4.090000000000000000e+02 1.458786123003528928e+03
4.100000000000000000e+02 1.251353398879904944e+03
4.110000000000000000e+02 1.070507570213648705e+03
4.120000000000000000e+02 9.963293728686995792e+02
4.130000000000000000e+02 9.973770814184983919e+02
4.140000000000000000e+02 1.051316544077992830e+03
4.150000000000000000e+02 1.135881450943787740e+03
4.160000000000000000e+02 1.180229386768975246e+03
4.170000000000000000e+02 1.071731944617296449e+03
4.180000000000000000e+02 8.013816894212785655e+02
4.190000000000000000e+02 5.437144905433465283e+02
4.200000000000000000e+02 3.651660357602120826e+02
4.210000000000000000e+02 2.515768970759027070e+02
4.220000000000000000e+02 1.800235016801505594e+02
4.230000000000000000e+02 9.765643795893161894e+01
4.240000000000000000e+02 4.484695495540353249e+01
4.250000000000000000e+02 2.261361686786978709e+01
4.260000000000000000e+02 1.117337745612965882e+01
4.270000000000000000e+02 2.746398593652783404e+01
4.280000000000000000e+02 4.225479821821198811e+01
4.290000000000000000e+02 4.268942333125909983e+01
4.300000000000000000e+02 4.529681635760231728e+01
4.310000000000000000e+02 5.805243497822040410e+01
4.320000000000000000e+02 6.683669219249117077e+01
4.330000000000000000e+02 4.510422026965294862e+01
4.340000000000000000e+02 3.827781644264683791e+01
4.350000000000000000e+02 3.691046611698810409e+01
4.360000000000000000e+02 1.971426102675852832e+01
4.370000000000000000e+02 1.171132999377768336e+01
4.380000000000000000e+02 2.778715638531759780e+01
4.390000000000000000e+02 4.494825507778421070e+01
4.400000000000000000e+02 8.955467355320313061e+01
4.410000000000000000e+02 1.681132947739509689e+02
4.420000000000000000e+02 2.623925190624343031e+02
4.430000000000000000e+02 3.813649407384343135e+02
4.440000000000000000e+02 5.026398496267101450e+02
4.450000000000000000e+02 6.397424410080897133e+02
4.460000000000000000e+02 8.111934925741538791e+02
4.470000000000000000e+02 1.018879401078392448e+03
4.480000000000000000e+02 1.243022886538064768e+03
4.490000000000000000e+02 1.422496634723087027e+03
4.500000000000000000e+02 1.645101921816679351e+03
4.510000000000000000e+02 1.912522548641364210e+03
4.520000000000000000e+02 2.109744668118650225e+03
4.530000000000000000e+02 2.348063927815800071e+03
4.540000000000000000e+02 2.563525968886128339e+03
4.550000000000000000e+02 2.791825629330019638e+03
4.560000000000000000e+02 2.944532736569176450e+03
4.570000000000000000e+02 2.851585547396809943e+03
4.580000000000000000e+02 2.611862988176734234e+03
4.590000000000000000e+02 2.301881855631614144e+03
4.600000000000000000e+02 2.030706293715000129e+03
4.610000000000000000e+02 1.966873950217795255e+03
4.620000000000000000e+02 2.147768511512134410e+03
4.630000000000000000e+02 2.170787456129433394e+03
4.640000000000000000e+02 2.435990671230032149e+03
4.650000000000000000e+02 2.896528643434977766e+03
4.660000000000000000e+02 3.497106962248499258e+03
4.670000000000000000e+02 4.235812148693491508e+03
4.680000000000000000e+02 5.020473042314887607e+03
4.690000000000000000e+02 5.925733441402211611e+03
4.700000000000000000e+02 6.958294423475729673e+03
4.710000000000000000e+02 8.049449103090645622e+03
4.720000000000000000e+02 9.137408579962686417e+03
4.730000000000000000e+02 1.026768007756117186e+04
4.740000000000000000e+02 1.143911823273177470e+04
4.750000000000000000e+02 1.271561003733661892e+04
4.760000000000000000e+02 1.401712479054333926e+04
4.770000000000000000e+02 1.515072209707528236e+04
4.780000000000000000e+02 1.575694263845675596e+04
4.790000000000000000e+02 1.525261056834681403e+04
4.800000000000000000e+02 1.371199637004771466e+04
4.810000000000000000e+02 1.146169945239579101e+04
4.820000000000000000e+02 9.074529667703773157e+03
4.830000000000000000e+02 7.121717308442222929e+03
4.840000000000000000e+02 5.575889477494296443e+03
4.850000000000000000e+02 4.510332304708550510e+03
4.860000000000000000e+02 3.807679858742991200e+03
4.870000000000000000e+02 3.370162095623311870e+03
4.880000000000000000e+02 3.157968793818707127e+03
4.890000000000000000e+02 3.078797766438497547e+03
4.900000000000000000e+02 3.194354224019915819e+03
4.910000000000000000e+02 3.529574333540751013e+03
4.920000000000000000e+02 4.033916051016162328e+03
4.930000000000000000e+02 4.695925500518559602e+03
4.940000000000000000e+02 5.675816233354064025e+03
4.950000000000000000e+02 6.833906911862285597e+03
4.960000000000000000e+02 8.200382807093968950e+03
4.970000000000000000e+02 9.764132775565230986e+03
4.980000000000000000e+02 1.150511395271672336e+04
4.990000000000000000e+02 1.342439035469821829e+04
5.000000000000000000e+02 1.530267211574363319e+04
5.010000000000000000e+02 1.725616943177108624e+04
5.020000000000000000e+02 1.924674014727239046e+04
5.030000000000000000e+02 2.128128845675174307e+04
5.040000000000000000e+02 2.345712317295723551e+04
5.050000000000000000e+02 2.566109680149342603e+04
5.060000000000000000e+02 2.701574184609003350e+04
5.070000000000000000e+02 2.684749432275463187e+04
5.080000000000000000e+02 2.487863383530393912e+04
5.090000000000000000e+02 2.141111174859997482e+04
5.100000000000000000e+02 1.727268154324830903e+04
5.110000000000000000e+02 1.342688246836759572e+04
5.120000000000000000e+02 1.031114262435183809e+04
5.130000000000000000e+02 7.945187072391655420e+03
5.140000000000000000e+02 6.219360686994426032e+03
5.150000000000000000e+02 5.055150127566889751e+03
5.160000000000000000e+02 4.090235595312172336e+03
5.170000000000000000e+02 3.347433282306573346e+03
5.180000000000000000e+02 2.810654865823309137e+03
5.190000000000000000e+02 2.402917895457367194e+03
5.200000000000000000e+02 2.025370879070729870e+03
5.210000000000000000e+02 1.743103708004976397e+03
5.220000000000000000e+02 1.540227928438081108e+03
5.230000000000000000e+02 1.352491555071561379e+03
5.240000000000000000e+02 1.175659902115304249e+03
5.250000000000000000e+02 1.039706883011822129e+03
5.260000000000000000e+02 9.096258258037752285e+02
5.270000000000000000e+02 7.911295782248022306e+02
5.280000000000000000e+02 7.075221620410699188e+02
5.290000000000000000e+02 6.524257195395148301e+02
5.300000000000000000e+02 5.881883266486928505e+02
5.310000000000000000e+02 4.726835102053519222e+02
5.320000000000000000e+02 4.202277263223399473e+02
5.330000000000000000e+02 3.761801677037955756e+02
5.340000000000000000e+02 3.229678740717695291e+02
5.350000000000000000e+02 2.727574234183783801e+02
5.360000000000000000e+02 2.415615129433726906e+02
5.370000000000000000e+02 2.190597852520226638e+02
5.380000000000000000e+02 1.610891267786777235e+02
5.390000000000000000e+02 1.201330853349927565e+02
5.400000000000000000e+02 1.102847922837585770e+02
5.410000000000000000e+02 1.020042177598012927e+02
5.420000000000000000e+02 7.032019271935298832e+01
5.430000000000000000e+02 5.494247697573130296e+01
5.440000000000000000e+02 6.095900179423325227e+01
5.450000000000000000e+02 5.505174748185047662e+01
5.460000000000000000e+02 2.548135923522131208e+01
5.470000000000000000e+02 6.725487119244943024e+00
5.480000000000000000e+02 7.563556131093112533e+00
5.490000000000000000e+02 6.076344748599946222e+00
5.500000000000000000e+02 2.969823338033906168e+01
5.510000000000000000e+02 4.491758332918523422e+01
5.520000000000000000e+02 1.677156979257478753e+01
5.530000000000000000e+02 6.609443893819833882e+00
5.540000000000000000e+02 3.644363296204033986e+01
5.550000000000000000e+02 2.005050332918615652e+01
5.560000000000000000e+02 1.778968985068362940e+01
5.570000000000000000e+02 2.622071230450195856e+01
5.580000000000000000e+02 3.845235674341250842e+01
5.590000000000000000e+02 3.051981923874653546e+01
5.600000000000000000e+02 4.614107396390821236e+01
5.610000000000000000e+02 1.426147471582695481e+01
5.620000000000000000e+02 1.587614433685944704e+01
5.630000000000000000e+02 1.731251629744888731e+01
5.640000000000000000e+02 6.476353609209722606e+01
5.650000000000000000e+02 7.849649477286905608e+01
5.660000000000000000e+02 1.210335562124058981e+02
5.670000000000000000e+02 1.811596154947120283e+02
5.680000000000000000e+02 2.315112939431638210e+02
5.690000000000000000e+02 2.823309990665814553e+02
5.700000000000000000e+02 3.467752138975349112e+02
5.710000000000000000e+02 4.369372448247218017e+02
5.720000000000000000e+02 5.046493870981103100e+02
5.730000000000000000e+02 5.526833134384050936e+02
5.740000000000000000e+02 6.110527184194131678e+02
5.750000000000000000e+02 6.944672071769326749e+02
5.760000000000000000e+02 7.451401800497711747e+02
5.770000000000000000e+02 7.994725849408836211e+02
5.780000000000000000e+02 8.438119310516490259e+02
5.790000000000000000e+02 8.472646902944833300e+02
5.800000000000000000e+02 7.873714404687804063e+02
5.810000000000000000e+02 6.640810616054733373e+02
5.820000000000000000e+02 5.241519557859876386e+02
5.830000000000000000e+02 3.959347036092045187e+02
5.840000000000000000e+02 2.953401950840038239e+02
5.850000000000000000e+02 2.210684559012684645e+02
5.860000000000000000e+02 1.606303510475029270e+02
5.870000000000000000e+02 1.138608611488984650e+02
5.880000000000000000e+02 5.977054965152568400e+01
5.890000000000000000e+02 4.398408447624922957e+01
5.900000000000000000e+02 4.925079313770250877e+01
5.910000000000000000e+02 2.662995933416322458e+01
5.920000000000000000e+02 7.950937056627067179e+00
5.930000000000000000e+02 2.291001558689343653e+01
5.940000000000000000e+02 2.984364527069075024e+01
5.950000000000000000e+02 4.722419757726797229e+01
5.960000000000000000e+02 1.103129310037321176e+02
5.970000000000000000e+02 2.260929088985355406e+01
5.980000000000000000e+02 2.991606827006678770e+01
5.990000000000000000e+02 1.655682401120230196e+01
6.000000000000000000e+02 3.300941571547655329e+00
6.010000000000000000e+02 1.092545012445554065e+01
6.020000000000000000e+02 1.570860901680087807e+01
6.030000000000000000e+02 2.784970578805503649e+01
6.040000000000000000e+02 5.295211030699182864e+00
6.050000000000000000e+02 3.114212945239460240e+00
6.060000000000000000e+02 3.378767360016591059e+00
6.070000000000000000e+02 3.631337321095139625e+00
6.080000000000000000e+02 2.375903965567338716e+01
6.090000000000000000e+02 5.035356815221953042e+01
6.100000000000000000e+02 4.058568594067576640e+01
6.110000000000000000e+02 5.532007851275762533e+01
6.120000000000000000e+02 5.853532923683047784e+01
6.130000000000000000e+02 6.282748497407455801e+01
6.140000000000000000e+02 1.022054227712087311e+02
6.150000000000000000e+02 8.550553891308811671e+01
6.160000000000000000e+02 1.163843113876774851e+02
6.170000000000000000e+02 1.338966266957063169e+02
6.180000000000000000e+02 1.592495842771200785e+02
6.190000000000000000e+02 2.011931005393068972e+02
6.200000000000000000e+02 2.197603814561288971e+02
6.210000000000000000e+02 2.637059329807096901e+02
6.220000000000000000e+02 3.291243613150801366e+02
6.230000000000000000e+02 3.614372268616469341e+02
6.240000000000000000e+02 3.954465103712937548e+02
6.250000000000000000e+02 4.477921512756699371e+02
6.260000000000000000e+02 4.658864405226065060e+02
6.270000000000000000e+02 5.546470941713363345e+02
6.280000000000000000e+02 6.083429070524799727e+02
6.290000000000000000e+02 6.557083069265878521e+02
6.300000000000000000e+02 6.949093351586814151e+02
6.310000000000000000e+02 7.352582284795709029e+02
6.320000000000000000e+02 8.143071904189141605e+02
6.330000000000000000e+02 7.864919037958937906e+02
6.340000000000000000e+02 7.893781200995648533e+02
6.350000000000000000e+02 7.861351033596010893e+02
6.360000000000000000e+02 7.636132007882182506e+02
6.370000000000000000e+02 7.508651474590334374e+02
6.380000000000000000e+02 7.492142609705516634e+02
6.390000000000000000e+02 7.576935494088365886e+02
6.400000000000000000e+02 7.813893362372955380e+02
6.410000000000000000e+02 8.003519697365695720e+02
6.420000000000000000e+02 8.313362267371926464e+02
6.430000000000000000e+02 8.894351272557564698e+02
6.440000000000000000e+02 9.270166813939025587e+02
6.450000000000000000e+02 9.686581214063475045e+02
6.460000000000000000e+02 9.461810788633060838e+02
6.470000000000000000e+02 9.098078412570002911e+02
6.480000000000000000e+02 8.555439138145603692e+02
6.490000000000000000e+02 7.451501299522919908e+02
6.500000000000000000e+02 6.458411323999176830e+02
6.510000000000000000e+02 5.502626763741970990e+02
6.520000000000000000e+02 4.616860350342255401e+02
6.530000000000000000e+02 3.819666507778460982e+02
6.540000000000000000e+02 3.315505530802738576e+02
6.550000000000000000e+02 3.180944301119869806e+02
6.560000000000000000e+02 2.392238962041066088e+02
6.570000000000000000e+02 2.124478612943372866e+02
6.580000000000000000e+02 1.906058444628785082e+02
6.590000000000000000e+02 1.730670753370669672e+02
6.600000000000000000e+02 1.633453346193736593e+02
6.610000000000000000e+02 1.507387212774782199e+02
6.620000000000000000e+02 1.413485145612943370e+02
6.630000000000000000e+02 1.076545951047503848e+02
6.640000000000000000e+02 1.046950392575694906e+02
6.650000000000000000e+02 1.014909831777640079e+02
6.660000000000000000e+02 8.728161258245191334e+01
6.670000000000000000e+02 8.161782727442435714e+01
6.680000000000000000e+02 6.676565249948139069e+01
6.690000000000000000e+02 6.451847986105354948e+01
6.700000000000000000e+02 5.531751682016182059e+01
6.710000000000000000e+02 4.714404952084632328e+01
6.720000000000000000e+02 4.060088926586494296e+01
6.730000000000000000e+02 2.755407267371920099e+01
6.740000000000000000e+02 2.391396206803565505e+01
6.750000000000000000e+02 3.507406526337609165e+01
6.760000000000000000e+02 3.636151005600503083e+01
6.770000000000000000e+02 2.570849554241888768e+01
6.780000000000000000e+02 2.438869532144330776e+01
6.790000000000000000e+02 3.197089541174047156e+01
6.800000000000000000e+02 1.440377445177397675e+01
6.810000000000000000e+02 2.511661634100817864e+01
6.820000000000000000e+02 4.220820166977804178e+01
6.830000000000000000e+02 2.527160879900435475e+01
6.840000000000000000e+02 6.732668309479386437e+00
6.850000000000000000e+02 4.304070668326181348e+00
6.860000000000000000e+02 1.690411468989847776e+01
6.870000000000000000e+02 7.090401173408193536e+00
6.880000000000000000e+02 6.616347556938212193e+00
6.890000000000000000e+02 8.602743678904850810e+00
6.900000000000000000e+02 1.066644296390776425e+01
6.910000000000000000e+02 1.132780278987787881e+01
6.920000000000000000e+02 5.024211787180694166e+00
6.930000000000000000e+02 8.808219022194135661e+00
6.940000000000000000e+02 2.398753281269450000e+01
6.950000000000000000e+02 4.370990106594102365e+00
6.960000000000000000e+02 1.450175957747369893e+01
6.970000000000000000e+02 1.443329330844219882e+01
6.980000000000000000e+02 1.122386921982576879e+01
6.990000000000000000e+02 6.412385355942912035e+00
7.000000000000000000e+02 3.714603425015483573e+00
7.010000000000000000e+02 1.262053898382370321e+01
7.020000000000000000e+02 2.185876821821169358e+01
7.030000000000000000e+02 2.067171671437424862e+01
7.040000000000000000e+02 4.023331187682074095e+00
7.050000000000000000e+02 1.379517941920704871e+01
7.060000000000000000e+02 1.861015127152041870e+01
7.070000000000000000e+02 9.283618970544798898e+00
7.080000000000000000e+02 8.983733108275611556e+00
7.090000000000000000e+02 3.462722040862850292e+01
7.100000000000000000e+02 4.049989428126951196e+01
7.110000000000000000e+02 3.681841604231480147e+01
7.120000000000000000e+02 5.246622678282486874e+01
7.130000000000000000e+02 7.601032703795917200e+01
7.140000000000000000e+02 9.010064684920143918e+01
7.150000000000000000e+02 9.855584877411337175e+01
7.160000000000000000e+02 1.117734840696954990e+02
7.170000000000000000e+02 1.143350271313001940e+02
7.180000000000000000e+02 7.453447284380706606e+01
7.190000000000000000e+02 9.406050536195604650e+01
7.200000000000000000e+02 1.144684388093759964e+02
7.210000000000000000e+02 1.087291118000823644e+02
7.220000000000000000e+02 9.316255235843267712e+01
7.230000000000000000e+02 6.633436166977978132e+01
7.240000000000000000e+02 2.362211354624696114e+01
7.250000000000000000e+02 3.107432014104907125e+01
7.260000000000000000e+02 6.690865417548154426e+01
7.270000000000000000e+02 8.471560067399421712e+01
7.280000000000000000e+02 8.315998579962666781e+01
7.290000000000000000e+02 8.924468761252852289e+01
7.300000000000000000e+02 7.924379813770187297e+01
7.310000000000000000e+02 4.661931788425553691e+01
7.320000000000000000e+02 3.767604233354085608e+01
7.330000000000000000e+02 5.281461379510672316e+01
7.340000000000000000e+02 8.055000372744396486e+01
7.350000000000000000e+02 9.575866833851759452e+01
7.360000000000000000e+02 5.885703739265701273e+01
7.370000000000000000e+02 7.636616448247356459e+01
7.380000000000000000e+02 9.648486452094626031e+01
7.390000000000000000e+02 1.097519241236255425e+02
7.400000000000000000e+02 1.241195842389048209e+02
7.410000000000000000e+02 1.530598026135656369e+02
7.420000000000000000e+02 2.021892692802322529e+02
7.430000000000000000e+02 2.369610084612198193e+02
7.440000000000000000e+02 2.523622661895875297e+02
7.450000000000000000e+02 3.085519566894849959e+02
7.460000000000000000e+02 3.720235076109519241e+02
7.470000000000000000e+02 4.291381826799445776e+02
7.480000000000000000e+02 5.159949341215556160e+02
7.490000000000000000e+02 6.483129825347360793e+02
7.500000000000000000e+02 8.202055864343574285e+02
7.510000000000000000e+02 1.024344502820414391e+03
7.520000000000000000e+02 1.241913347230858790e+03
7.530000000000000000e+02 1.482854909354897927e+03
7.540000000000000000e+02 1.763916758191633562e+03
7.550000000000000000e+02 2.070765864343495195e+03
7.560000000000000000e+02 2.363144395768510549e+03
7.570000000000000000e+02 2.664607248444631750e+03
7.580000000000000000e+02 2.985968699439955344e+03
7.590000000000000000e+02 3.308177434349724535e+03
7.600000000000000000e+02 3.630269877851525962e+03
7.610000000000000000e+02 3.929945132545121851e+03
7.620000000000000000e+02 4.089693065339143232e+03
7.630000000000000000e+02 4.104206158680765839e+03
7.640000000000000000e+02 3.835839074673292089e+03
7.650000000000000000e+02 3.367204885915774867e+03
7.660000000000000000e+02 2.824359628500329563e+03
7.670000000000000000e+02 2.297480507778456740e+03
7.680000000000000000e+02 1.852809383322955910e+03
7.690000000000000000e+02 1.517407338518982897e+03
7.700000000000000000e+02 1.278171982368805857e+03
7.710000000000000000e+02 1.114865090437670688e+03
7.720000000000000000e+02 9.976346479568544510e+02
7.730000000000000000e+02 8.993339398879892315e+02
7.740000000000000000e+02 8.079532688238947458e+02
7.750000000000000000e+02 7.301307954366300237e+02
7.760000000000000000e+02 6.664588398672461835e+02
7.770000000000000000e+02 5.525198944006625652e+02
7.780000000000000000e+02 4.836893311138760509e+02
7.790000000000000000e+02 4.098501773905817345e+02
7.800000000000000000e+02 3.087119048527574705e+02
7.810000000000000000e+02 2.554100925534116016e+02
7.820000000000000000e+02 2.281064405724951598e+02
7.830000000000000000e+02 1.965708093114885742e+02
7.840000000000000000e+02 1.511592971167801807e+02
7.850000000000000000e+02 1.368804796930097609e+02
7.860000000000000000e+02 1.259348673164657839e+02
7.870000000000000000e+02 1.068750031736154114e+02
7.880000000000000000e+02 1.273710178386226914e+02
7.890000000000000000e+02 1.267876744451358917e+02
7.900000000000000000e+02 1.310392766438498313e+02
7.910000000000000000e+02 1.301537374611076245e+02
7.920000000000000000e+02 1.567899868699444710e+02
7.930000000000000000e+02 1.776830651317154093e+02
7.940000000000000000e+02 1.784372772246417469e+02
7.950000000000000000e+02 2.347662040862894344e+02
7.960000000000000000e+02 2.763816068450527155e+02
7.970000000000000000e+02 3.408223484339338256e+02
7.980000000000000000e+02 3.944604147894628454e+02
7.990000000000000000e+02 4.789764071147055802e+02
8.000000000000000000e+02 6.118156993777199659e+02
8.010000000000000000e+02 7.779101406969502932e+02
8.020000000000000000e+02 1.001533926135655747e+03
8.030000000000000000e+02 1.189062565740351829e+03
8.040000000000000000e+02 1.519873184401574008e+03
8.050000000000000000e+02 1.843300413814566582e+03
8.060000000000000000e+02 2.185875694939852110e+03
8.070000000000000000e+02 2.605860081103500306e+03
8.080000000000000000e+02 3.033761462974478945e+03
8.090000000000000000e+02 3.396732583575274475e+03
8.100000000000000000e+02 3.794736829495949223e+03
8.110000000000000000e+02 4.222167400539296978e+03
8.120000000000000000e+02 4.590377073828281937e+03
8.130000000000000000e+02 4.839201576228993872e+03
8.140000000000000000e+02 4.926853670192905156e+03
8.150000000000000000e+02 4.816086205351589342e+03
8.160000000000000000e+02 4.449917903546987873e+03
8.170000000000000000e+02 3.817632306782832984e+03
8.180000000000000000e+02 3.115722321302625915e+03
8.190000000000000000e+02 2.486226047293086594e+03
8.200000000000000000e+02 1.932195786973651366e+03
8.210000000000000000e+02 1.481695084422326090e+03
8.220000000000000000e+02 1.199921495955187766e+03
8.230000000000000000e+02 9.672095588052202402e+02
8.240000000000000000e+02 7.658274304916037636e+02
8.250000000000000000e+02 6.345498772868735387e+02
8.260000000000000000e+02 5.519649856461344370e+02
8.270000000000000000e+02 4.663645861232138259e+02
8.280000000000000000e+02 3.973717619166164354e+02
8.290000000000000000e+02 3.972070293239332273e+02
8.300000000000000000e+02 3.539567689483520212e+02
8.310000000000000000e+02 2.881741033395567797e+02
8.320000000000000000e+02 2.839639562007465088e+02
8.330000000000000000e+02 2.652740751088983302e+02
8.340000000000000000e+02 2.248411310309063253e+02
8.350000000000000000e+02 1.919594107424299807e+02
8.360000000000000000e+02 1.635214852935070269e+02
8.370000000000000000e+02 1.513098803982574054e+02
8.380000000000000000e+02 1.447415280381586911e+02
8.390000000000000000e+02 1.380193974901476395e+02
8.400000000000000000e+02 1.218314813109303714e+02
8.410000000000000000e+02 9.305244985690724491e+01
8.420000000000000000e+02 7.549798000622178051e+01
8.430000000000000000e+02 9.299891444928422857e+01
8.440000000000000000e+02 8.824759759386080304e+01
8.450000000000000000e+02 5.707025226301647791e+01
8.460000000000000000e+02 4.875109286869945890e+01
8.470000000000000000e+02 4.109086904169259924e+01
8.480000000000000000e+02 2.081302591993367201e+01
8.490000000000000000e+02 1.573104247790908161e+01
8.500000000000000000e+02 2.881348484546743904e+01
8.510000000000000000e+02 2.309379532047034722e+00
8.520000000000000000e+02 1.722203023169509706e+01
8.530000000000000000e+02 2.381943326073428580e+01
8.540000000000000000e+02 1.681561809790456152e+01
8.550000000000000000e+02 9.273494525922622245e+00
8.560000000000000000e+02 2.374318958307307437e+00
8.570000000000000000e+02 7.605633011201215155e+00
8.580000000000000000e+02 1.168678859394461611e+01
8.590000000000000000e+02 1.492498661066172794e+01
8.600000000000000000e+02 9.449987803360581751e+00
8.610000000000000000e+02 3.975230991704406414e+00
8.620000000000000000e+02 1.296995241028829682e+01
8.630000000000000000e+02 1.240920408628918814e+01
8.640000000000000000e+02 4.360845799253345589e+00
8.650000000000000000e+02 9.324303457374213622e+00
8.660000000000000000e+02 2.472789563576036187e+01
8.670000000000000000e+02 1.789941483616717477e+01
8.680000000000000000e+02 3.829884934660318763e+00
8.690000000000000000e+02 1.628597158058567729e+01
8.700000000000000000e+02 3.652825008711917576e+01
8.710000000000000000e+02 2.180672840033006565e+01
8.720000000000000000e+02 2.092553227546115480e+01
8.730000000000000000e+02 4.243653736153433442e+00
8.740000000000000000e+02 1.984660651524573538e+01
8.750000000000000000e+02 1.100606488321995258e+01
8.760000000000000000e+02 1.160573804978252177e+01
8.770000000000000000e+02 5.177769828666126450e+00
8.780000000000000000e+02 2.024079703795862528e+01
8.790000000000000000e+02 2.961010082762909690e+01
8.800000000000000000e+02 1.368999613565592810e+01
8.810000000000000000e+02 3.491691521261241604e+00
8.820000000000000000e+02 6.867138121941540163e+00
8.830000000000000000e+02 2.160836423563588227e+01
8.840000000000000000e+02 1.258077673490898185e+01
8.850000000000000000e+02 5.088963627126130262e+00
8.860000000000000000e+02 1.456715469819565456e+01
8.870000000000000000e+02 1.469258833229683248e+01
8.880000000000000000e+02 3.400880612194124097e+01
8.890000000000000000e+02 1.618689750466734978e+01
8.900000000000000000e+02 2.100787013482647581e+01
8.910000000000000000e+02 4.005529871837406120e+01
8.920000000000000000e+02 2.316941610869096735e+01
8.930000000000000000e+02 6.983151477286914321e+00
8.940000000000000000e+02 2.970197030692689921e+01
8.950000000000000000e+02 1.273304609831944312e+01
8.960000000000000000e+02 3.994050263431017100e+00
8.970000000000000000e+02 1.944086648828056241e+01
8.980000000000000000e+02 1.210930966645901385e+01
8.990000000000000000e+02 2.890857229827895480e+01
9.000000000000000000e+02 4.865672820784033803e+01
9.010000000000000000e+02 4.135805930927197949e+01
9.020000000000000000e+02 3.920781901057858931e+01
9.030000000000000000e+02 2.789149267579329816e+01
9.040000000000000000e+02 4.773020386019527450e+01
9.050000000000000000e+02 2.360178127774294055e+01
9.060000000000000000e+02 2.627368609209703010e+01
9.070000000000000000e+02 4.410573619788422661e+01
9.080000000000000000e+02 5.359263475627459172e+01
9.090000000000000000e+02 6.103244097490146913e+01
9.100000000000000000e+02 6.358570598838432630e+01
9.110000000000000000e+02 7.607120940688501776e+01
9.120000000000000000e+02 3.348262039825718261e+01
9.130000000000000000e+02 4.375625656502813143e+01
9.140000000000000000e+02 4.705593711115711386e+01
9.150000000000000000e+02 3.778778856461315883e+01
9.160000000000000000e+02 4.504034438083386505e+01
9.170000000000000000e+02 5.220740108253832545e+01
9.180000000000000000e+02 3.553451734494902325e+01
9.190000000000000000e+02 7.996067142709049946e+00
9.200000000000000000e+02 2.654081174408984722e+00
9.210000000000000000e+02 2.506438419415068353e+01
9.220000000000000000e+02 2.469879028832203005e+01
9.230000000000000000e+02 1.781126659199344786e+01
9.240000000000000000e+02 2.222947683260735374e+01
9.250000000000000000e+02 1.208645312632216218e+01
9.260000000000000000e+02 2.838927255133819383e+00
9.270000000000000000e+02 1.456285926156395405e+01
9.280000000000000000e+02 1.283330510786164602e+01
9.290000000000000000e+02 1.467948238000416694e+01
9.300000000000000000e+02 2.557084367766030297e+01
9.310000000000000000e+02 2.295837537855203792e+01
9.320000000000000000e+02 2.113826922215312365e+01
9.330000000000000000e+02 4.288940629122748760e+00
9.340000000000000000e+02 1.953952251400192353e+00
9.350000000000000000e+02 2.898584510889835997e+01
9.360000000000000000e+02 1.127890606513199323e+01
9.370000000000000000e+02 5.745548251970010512e+00
9.380000000000000000e+02 2.679061638871576889e+00
9.390000000000000000e+02 8.523394888612536135e+00
9.400000000000000000e+02 3.187466285773541230e+01
9.410000000000000000e+02 2.074074565028041661e+01
9.420000000000000000e+02 1.653511389753334226e+00
9.430000000000000000e+02 6.983791466818408011e+00
9.440000000000000000e+02 2.150626925948951396e+01
9.450000000000000000e+02 2.468453348267999914e+01
9.460000000000000000e+02 3.108935376607193035e+01
9.470000000000000000e+02 3.126041244555098686e+01
9.480000000000000000e+02 3.692451693217086728e+01
9.490000000000000000e+02 7.675726588552409169e+01
9.500000000000000000e+02 6.866230203692209955e+01
9.510000000000000000e+02 5.818342095001012382e+01
9.520000000000000000e+02 7.875177865588054260e+01
9.530000000000000000e+02 7.658525065339142657e+01
9.540000000000000000e+02 6.800531864965773821e+01
9.550000000000000000e+02 7.639250233354110264e+01
9.560000000000000000e+02 9.446629141671903085e+01
9.570000000000000000e+02 1.073028321095207360e+02
9.580000000000000000e+02 9.697896024268786164e+01
9.590000000000000000e+02 1.442043136693609711e+02
9.600000000000000000e+02 1.852250756274645767e+02
9.610000000000000000e+02 2.139474658162198182e+02
9.620000000000000000e+02 2.394351708774102292e+02
9.630000000000000000e+02 2.589071411032758760e+02
9.640000000000000000e+02 2.835695574569578525e+02
9.650000000000000000e+02 3.462774914955373333e+02
9.660000000000000000e+02 4.522919067606781596e+02
9.670000000000000000e+02 5.386840900435588537e+02
9.680000000000000000e+02 6.656176448454668844e+02
9.690000000000000000e+02 7.601612842803818921e+02
9.700000000000000000e+02 8.906389159095649575e+02
9.710000000000000000e+02 1.037512518979466677e+03
9.720000000000000000e+02 1.155754210078808910e+03
9.730000000000000000e+02 1.283618993777230116e+03
9.740000000000000000e+02 1.432068140427301842e+03
9.750000000000000000e+02 1.510706360846118969e+03
9.760000000000000000e+02 1.574285051026754900e+03
9.770000000000000000e+02 1.601132156191660442e+03
9.780000000000000000e+02 1.566429890894008395e+03
9.790000000000000000e+02 1.440981339763540745e+03
9.800000000000000000e+02 1.244626289359061730e+03
9.810000000000000000e+02 1.043659772993157048e+03
9.820000000000000000e+02 8.689271836133607394e+02
9.830000000000000000e+02 6.809739380626448337e+02
9.840000000000000000e+02 5.595038407384349739e+02
9.850000000000000000e+02 4.460623405102666084e+02
9.860000000000000000e+02 3.274358286869935455e+02
9.870000000000000000e+02 2.754781591371080935e+02
9.880000000000000000e+02 2.583002259697149725e+02
9.890000000000000000e+02 2.132492265090214687e+02
9.900000000000000000e+02 1.711925109520865362e+02
9.910000000000000000e+02 1.953069794026125123e+02
9.920000000000000000e+02 1.638355206553293613e+02
9.930000000000000000e+02 1.672606022194559330e+02
9.940000000000000000e+02 1.824731184816435245e+02
9.950000000000000000e+02 2.133854437163018076e+02
9.960000000000000000e+02 2.543955549263630473e+02
9.970000000000000000e+02 2.922808971997504273e+02
9.980000000000000000e+02 3.230807625881375884e+02
9.990000000000000000e+02 3.689939710018670667e+02
1.000000000000000000e+03 4.761566900020743560e+02
1.001000000000000000e+03 4.723680439834028562e+02
1.002000000000000000e+03 5.105875452282165838e+02
1.003000000000000000e+03 5.812313686721979593e+02
1.004000000000000000e+03 6.348379288381754577e+02
1.005000000000000000e+03 6.670209875518670515e+02
1.006000000000000000e+03 6.812260782608691443e+02
1.007000000000000000e+03 6.696214775933609644e+02
1.008000000000000000e+03 6.571671784232376012e+02
1.009000000000000000e+03 6.145951746887959644e+02
1.010000000000000000e+03 6.154063979253107846e+02
1.011000000000000000e+03 6.329868132780082988e+02
1.012000000000000000e+03 6.308878039419086008e+02
1.013000000000000000e+03 6.149350850622408871e+02
1.014000000000000000e+03 5.936800782157672529e+02
1.015000000000000000e+03 5.634009970954361961e+02
1.016000000000000000e+03 5.302748705394178614e+02
1.017000000000000000e+03 5.108857510373450737e+02
1.018000000000000000e+03 4.386664514522819900e+02
1.019000000000000000e+03 4.669894230290461223e+02
1.020000000000000000e+03 4.682807182572614124e+02
1.021000000000000000e+03 5.093116039419109029e+02
1.022000000000000000e+03 5.586282192946054010e+02
1.023000000000000000e+03 5.822496950207470263e+02
1.024000000000000000e+03 6.318017000000005510e+02
1.025000000000000000e+03 7.295737979253188996e+02
1.026000000000000000e+03 8.524547219916976246e+02
1.027000000000000000e+03 9.634556761904739233e+02
1.028000000000000000e+03 1.045447082987554950e+03
1.029000000000000000e+03 1.088306439834027969e+03
1.030000000000000000e+03 1.162790118257255472e+03
1.031000000000000000e+03 1.207020871369294127e+03
1.032000000000000000e+03 1.164324846473022035e+03
1.033000000000000000e+03 1.083407410788386187e+03
1.034000000000000000e+03 1.016889512033197320e+03
1.035000000000000000e+03 9.007001964803242799e+02
1.036000000000000000e+03 7.336981176348517693e+02
1.037000000000000000e+03 6.431149074688829614e+02
1.038000000000000000e+03 5.478215742738575500e+02
1.039000000000000000e+03 4.415593365145152234e+02
1.040000000000000000e+03 3.861430510373456855e+02
1.041000000000000000e+03 3.411650136929467294e+02
1.042000000000000000e+03 2.916927497925304920e+02
1.043000000000000000e+03 2.989443448132773256e+02
1.044000000000000000e+03 2.341015977178425373e+02
1.045000000000000000e+03 2.340573533195019138e+02
1.046000000000000000e+03 2.212916898340226908e+02
1.047000000000000000e+03 1.918176449275387938e+02
1.048000000000000000e+03 1.521131406639001966e+02
1.049000000000000000e+03 1.189262369294589803e+02
1.050000000000000000e+03 9.069287921161759414e+01
1.051000000000000000e+03 5.923673394190990393e+01
1.052000000000000000e+03 4.164169045643147626e+01
1.053000000000000000e+03 4.559883302904567159e+01
1.054000000000000000e+03 3.321724435684760834e+01
1.055000000000000000e+03 5.984558692946132297e+00
1.056000000000000000e+03 1.105104356955043388e-01
1.057000000000000000e+03 2.959416609958170241e+01
1.058000000000000000e+03 3.185855597510435899e+01
1.059000000000000000e+03 2.175189307053993559e+01
1.060000000000000000e+03 3.453387139004225759e+01
1.061000000000000000e+03 3.209069049792662298e+01
1.062000000000000000e+03 9.332383960580918014e+00
1.063000000000000000e+03 1.045166847925181308e+01
1.064000000000000000e+03 2.165625681159271920e+01
1.065000000000000000e+03 1.803747656431485780e+01
1.066000000000000000e+03 1.653633323651284925e+01
1.067000000000000000e+03 7.532247821575789537e+00
1.068000000000000000e+03 1.107296788381781738e+01
1.069000000000000000e+03 1.381509433195052772e+01
1.070000000000000000e+03 3.600705423236730951e+01
1.071000000000000000e+03 6.832693470953981318e+01
1.072000000000000000e+03 1.098196666666664498e+02
1.073000000000000000e+03 1.143227394190865027e+02
1.074000000000000000e+03 1.032982360995855373e+02
1.075000000000000000e+03 1.072825751037336772e+02
1.076000000000000000e+03 1.377092018633552186e+02
1.077000000000000000e+03 1.757374425311201946e+02
1.078000000000000000e+03 2.224573695020709181e+02
1.079000000000000000e+03 2.701047914937757923e+02
1.080000000000000000e+03 3.019996684647323377e+02
1.081000000000000000e+03 3.478457377593314845e+02
1.082000000000000000e+03 4.131163290456412369e+02
1.083000000000000000e+03 4.958017170124510358e+02
1.084000000000000000e+03 5.792887033195100912e+02
1.085000000000000000e+03 6.774465719916946682e+02
1.086000000000000000e+03 8.339994452282178372e+02
1.087000000000000000e+03 9.951137840249065221e+02
1.088000000000000000e+03 1.169998093360974508e+03
1.089000000000000000e+03 1.400775020746885275e+03
1.090000000000000000e+03 1.640057597510385449e+03
1.091000000000000000e+03 1.898173601659749238e+03
1.092000000000000000e+03 2.201288477178405628e+03
1.093000000000000000e+03 2.492458832298141715e+03
1.094000000000000000e+03 2.775085232365168849e+03
1.095000000000000000e+03 2.991785479253097037e+03
1.096000000000000000e+03 3.227257746887961275e+03
1.097000000000000000e+03 3.386065159420295913e+03
1.098000000000000000e+03 3.409542153526974289e+03
1.099000000000000000e+03 3.347750991701251678e+03
1.100000000000000000e+03 3.192784518672196555e+03
1.101000000000000000e+03 3.019635668049781088e+03
1.102000000000000000e+03 2.735005989626573410e+03
1.103000000000000000e+03 2.491562551867220918e+03
1.104000000000000000e+03 2.283032489626544248e+03
1.105000000000000000e+03 2.029589349896479007e+03
1.106000000000000000e+03 1.811220107883822266e+03
1.107000000000000000e+03 1.662758551867215601e+03
1.108000000000000000e+03 1.573929298755181662e+03
1.109000000000000000e+03 1.520352004149382083e+03
1.110000000000000000e+03 1.458361398340248343e+03
1.111000000000000000e+03 1.408516470954352599e+03
1.112000000000000000e+03 1.310706053941911478e+03
1.113000000000000000e+03 1.298564000000000078e+03
1.114000000000000000e+03 1.293827377593358278e+03
1.115000000000000000e+03 1.198014082987546544e+03
1.116000000000000000e+03 1.109233809128633993e+03
1.117000000000000000e+03 1.033467409937886941e+03
1.118000000000000000e+03 9.422309188796615445e+02
1.119000000000000000e+03 8.360825157676462140e+02
1.120000000000000000e+03 7.050818545643176094e+02
1.121000000000000000e+03 6.142209458506185911e+02
1.122000000000000000e+03 5.131685000000062473e+02
1.123000000000000000e+03 4.458615443983429714e+02
1.124000000000000000e+03 3.784647070539407991e+02
1.125000000000000000e+03 3.494549224066345232e+02
1.126000000000000000e+03 2.632715489626621661e+02
1.127000000000000000e+03 2.039195242738589968e+02
1.128000000000000000e+03 1.902254269709531513e+02
1.129000000000000000e+03 1.760702246887965714e+02
1.130000000000000000e+03 1.565660012448147427e+02
1.131000000000000000e+03 1.079263570539408761e+02
1.132000000000000000e+03 9.406461846473068533e+01
1.133000000000000000e+03 1.102599327800838580e+02
1.134000000000000000e+03 4.878309983436837172e+01
1.135000000000000000e+03 4.862826421162019130e+01
1.136000000000000000e+03 4.363108120332064743e+01
1.137000000000000000e+03 5.163521188796582351e+01
1.138000000000000000e+03 7.014536338174308128e+01
1.139000000000000000e+03 7.255699676348480409e+01
1.140000000000000000e+03 6.797888419087122713e+01
1.141000000000000000e+03 7.285306136929462184e+01
1.142000000000000000e+03 7.911651167701796794e+01
1.143000000000000000e+03 7.626794105808885149e+01
1.144000000000000000e+03 1.184428865145222716e+02
1.145000000000000000e+03 1.130496141078835137e+02
1.146000000000000000e+03 1.605121614906819048e+02
1.147000000000000000e+03 1.745775082987560438e+02
1.148000000000000000e+03 1.721007809128632289e+02
1.149000000000000000e+03 2.083216199170167329e+02
1.150000000000000000e+03 2.479457427385875974e+02
1.151000000000000000e+03 2.345644904761907128e+02
1.152000000000000000e+03 1.936321742738612102e+02
1.153000000000000000e+03 2.258329479253083036e+02
1.154000000000000000e+03 1.834609807053961674e+02
1.155000000000000000e+03 1.527396929460573745e+02
1.156000000000000000e+03 1.327054887966782815e+02
1.157000000000000000e+03 1.020388492116209420e+02
1.158000000000000000e+03 6.469913763485530467e+01
1.159000000000000000e+03 4.955261485477194583e+01
1.160000000000000000e+03 4.393884031120354905e+01
1.161000000000000000e+03 4.338898018672146151e+01
1.162000000000000000e+03 5.022442499999984022e+01
1.163000000000000000e+03 3.375515745341456864e+01
1.164000000000000000e+03 3.020799058091265010e+01
1.165000000000000000e+03 5.395971999999999724e+01
1.166000000000000000e+03 6.568604863070224731e+00
1.167000000000000000e+03 1.746061900621029395e+01
1.168000000000000000e+03 9.255037558091581573e+00
1.169000000000000000e+03 1.422419628630770916e+01
1.170000000000000000e+03 2.731618116182579570e+01
1.171000000000000000e+03 1.122023545548868206e+01
1.172000000000000000e+03 9.085121867219855929e+00
1.173000000000000000e+03 1.229380342738738641e+01
1.174000000000000000e+03 1.683558663900575070e+01
1.175000000000000000e+03 1.044409320910954975e+01
1.176000000000000000e+03 5.290988132779763653e+00
1.177000000000000000e+03 1.703002367219797364e+01
1.178000000000000000e+03 2.108551224066381380e+01
1.179000000000000000e+03 2.468680200828148585e+01
1.180000000000000000e+03 6.014245008298377826e+00
1.181000000000000000e+03 1.133016053941418466e+00
1.182000000000000000e+03 2.326128904564139788e+00
1.183000000000000000e+03 1.261334742738831416e+01
1.184000000000000000e+03 3.517351871369510974e+01
1.185000000000000000e+03 9.564732719917799386e+00
1.186000000000000000e+03 6.599611338174595332e+00
1.187000000000000000e+03 1.201610338174197068e+01
1.188000000000000000e+03 1.159866666389918421e+01
1.189000000000000000e+03 1.282016639004149816e+01
1.190000000000000000e+03 1.778571970954399717e+01
1.191000000000000000e+03 1.718287680497960679e+01
1.192000000000000000e+03 1.995572599585065987e+01
1.193000000000000000e+03 1.235773890456366964e+01
1.194000000000000000e+03 1.087881932572746990e+01
1.195000000000000000e+03 1.253375170124424898e+01
1.196000000000000000e+03 1.467159500000009587e+01
1.197000000000000000e+03 9.416586721989748554e+00
1.198000000000000000e+03 2.033713975103610494e+01
1.199000000000000000e+03 2.048620448132809457e+01
1.200000000000000000e+03 1.051647633540389393e+01
1.201000000000000000e+03 3.447062510373338995e+01
1.202000000000000000e+03 3.885425759336145290e+01
1.203000000000000000e+03 6.674414190871148733e+00
1.204000000000000000e+03 9.446953229814980091e+00
1.205000000000000000e+03 1.852049746887954740e+01
1.206000000000000000e+03 4.177360937759273440e+01
1.207000000000000000e+03 4.074621074688508315e+01
1.208000000000000000e+03 4.051164619049158588e+00
1.209000000000000000e+03 1.628806844398409481e+01
1.210000000000000000e+03 5.696664821577176241e+00
1.211000000000000000e+03 2.583238205394198062e+01
1.212000000000000000e+03 1.635844275933644099e+01
1.213000000000000000e+03 2.815682560165972959e+01
1.214000000000000000e+03 2.890204759336052831e+01
1.215000000000000000e+03 6.064288170124989996e+00
1.216000000000000000e+03 3.994574344397963728e+01
1.217000000000000000e+03 5.458447286306963520e+01
1.218000000000000000e+03 3.170447246887787429e+01
1.219000000000000000e+03 7.756673508299185116e+00
1.220000000000000000e+03 1.978703668049316411e+00
1.221000000000000000e+03 3.592372120331976504e+01
1.222000000000000000e+03 3.813481062240634145e+01
1.223000000000000000e+03 3.962914199170142382e+01
1.224000000000000000e+03 3.485128290456436417e+01
1.225000000000000000e+03 4.004612469979298339e+01
1.226000000000000000e+03 2.083627977178541002e+01
1.227000000000000000e+03 1.215289572614108948e+01
1.228000000000000000e+03 3.447597047718039676e+01
1.229000000000000000e+03 4.270553296066274385e+01
1.230000000000000000e+03 4.591634933609937974e+01
1.231000000000000000e+03 3.535238132779964815e+01
1.232000000000000000e+03 3.623924000000324952e+01
1.233000000000000000e+03 5.293931927386206837e+01
1.234000000000000000e+03 1.178947408713792555e+01
1.235000000000000000e+03 5.303510006224017559e+01
1.236000000000000000e+03 4.007439211618289931e+01
1.237000000000000000e+03 3.853215180124239936e+01
1.238000000000000000e+03 2.457425000000038651e+01
1.239000000000000000e+03 5.414288431535289448e+01
1.240000000000000000e+03 4.198971078838333426e+01
1.241000000000000000e+03 2.973428898550734090e+01
1.242000000000000000e+03 5.769166443983863957e+01
1.243000000000000000e+03 6.737091300829982288e+01
1.244000000000000000e+03 6.526935493775914665e+01
1.245000000000000000e+03 3.595566661825380095e+01
1.246000000000000000e+03 1.187272365145025077e+01
1.247000000000000000e+03 4.364074634854696200e+01
1.248000000000000000e+03 5.635303854771728282e+01
1.249000000000000000e+03 4.690896448133088370e+01
1.250000000000000000e+03 7.749354923236596449e+01
1.251000000000000000e+03 3.570308228215758106e+01
1.252000000000000000e+03 3.873143033195088947e+01
1.253000000000000000e+03 9.182522002074588130e+00
1.254000000000000000e+03 2.095378244813187862e+01
1.255000000000000000e+03 3.827469800829863544e+01
1.256000000000000000e+03 5.672481427386220787e+01
1.257000000000000000e+03 5.258385232365409934e+01
1.258000000000000000e+03 3.684301883817439460e+01
1.259000000000000000e+03 6.529168773859190367e+01
1.260000000000000000e+03 6.781358460581523673e+01
1.261000000000000000e+03 1.274538715767595143e+01
1.262000000000000000e+03 3.419780917012627697e+01
1.263000000000000000e+03 5.760246780082949414e+01
1.264000000000000000e+03 4.110889775933679857e+01
1.265000000000000000e+03 3.529730485477175250e+01
1.266000000000000000e+03 2.784894739130333718e+01
1.267000000000000000e+03 9.581550282158758591e+00
1.268000000000000000e+03 3.350206804979197273e+01
1.269000000000000000e+03 6.144298033195088493e+01
1.270000000000000000e+03 4.286601658385318814e+01
1.271000000000000000e+03 2.438921041493779995e+01
1.272000000000000000e+03 3.730831788381782843e+01
1.273000000000000000e+03 4.256403547717803093e+01
1.274000000000000000e+03 3.806614130434808629e+01
1.275000000000000000e+03 3.291376143153524225e+01
1.276000000000000000e+03 2.256042564315275811e+01
1.277000000000000000e+03 1.921036821576571541e+01
1.278000000000000000e+03 4.253849738589187268e+01
1.279000000000000000e+03 2.930849614107821566e+01
1.280000000000000000e+03 2.834348958506210536e+01
1.281000000000000000e+03 2.921238286307059440e+01
1.282000000000000000e+03 3.745581883817420277e+01
1.283000000000000000e+03 2.306400053941669626e+01
1.284000000000000000e+03 2.353179360995653724e+01
1.285000000000000000e+03 4.576907499999943951e+01
1.286000000000000000e+03 3.788927719916941328e+01
1.287000000000000000e+03 5.658124278008876296e+00
1.288000000000000000e+03 4.192540663900317099e+00
1.289000000000000000e+03 1.681752423236534710e+01
1.290000000000000000e+03 2.967189535269666578e+01
1.291000000000000000e+03 2.227929703319460586e+01
1.292000000000000000e+03 3.112976273858919285e+01
1.293000000000000000e+03 1.978185672199099443e+01
1.294000000000000000e+03 6.643588226141075026e+00
1.295000000000000000e+03 2.905641378881856696e+01
1.296000000000000000e+03 1.567845701244740120e+01
1.297000000000000000e+03 4.413636572614693421e+01
1.298000000000000000e+03 2.404974780083570707e+01
1.299000000000000000e+03 8.238101449275253563e-03
1.300000000000000000e+03 0.000000000000000000e+00
1.301000000000000000e+03 0.000000000000000000e+00
1.302000000000000000e+03 0.000000000000000000e+00
1.303000000000000000e+03 0.000000000000000000e+00
1.304000000000000000e+03 0.000000000000000000e+00
1.305000000000000000e+03 0.000000000000000000e+00
1.306000000000000000e+03 0.000000000000000000e+00
1.307000000000000000e+03 0.000000000000000000e+00
1.308000000000000000e+03 0.000000000000000000e+00
1.309000000000000000e+03 0.000000000000000000e+00
1.310000000000000000e+03 0.000000000000000000e+00
1.311000000000000000e+03 0.000000000000000000e+00
1.312000000000000000e+03 0.000000000000000000e+00
1.313000000000000000e+03 0.000000000000000000e+00
1.314000000000000000e+03 0.000000000000000000e+00
1.315000000000000000e+03 0.000000000000000000e+00
1.316000000000000000e+03 0.000000000000000000e+00
1.317000000000000000e+03 0.000000000000000000e+00
1.318000000000000000e+03 0.000000000000000000e+00
1.319000000000000000e+03 0.000000000000000000e+00
1.320000000000000000e+03 0.000000000000000000e+00
1.321000000000000000e+03 0.000000000000000000e+00
1.322000000000000000e+03 0.000000000000000000e+00
1.323000000000000000e+03 0.000000000000000000e+00
1.324000000000000000e+03 0.000000000000000000e+00
1.325000000000000000e+03 0.000000000000000000e+00
1.326000000000000000e+03 0.000000000000000000e+00
1.327000000000000000e+03 0.000000000000000000e+00
1.328000000000000000e+03 0.000000000000000000e+00
1.329000000000000000e+03 0.000000000000000000e+00
1.330000000000000000e+03 0.000000000000000000e+00
1.331000000000000000e+03 0.000000000000000000e+00
1.332000000000000000e+03 0.000000000000000000e+00
1.333000000000000000e+03 0.000000000000000000e+00
1.334000000000000000e+03 0.000000000000000000e+00
1.335000000000000000e+03 0.000000000000000000e+00
1.336000000000000000e+03 0.000000000000000000e+00
1.337000000000000000e+03 0.000000000000000000e+00
1.338000000000000000e+03 0.000000000000000000e+00
1.339000000000000000e+03 0.000000000000000000e+00
1.340000000000000000e+03 0.000000000000000000e+00
1.341000000000000000e+03 0.000000000000000000e+00
1.342000000000000000e+03 0.000000000000000000e+00
1.343000000000000000e+03 0.000000000000000000e+00
1.344000000000000000e+03 0.000000000000000000e+00
1.345000000000000000e+03 0.000000000000000000e+00
1.346000000000000000e+03 0.000000000000000000e+00
1.347000000000000000e+03 0.000000000000000000e+00
1.348000000000000000e+03 0.000000000000000000e+00
1.349000000000000000e+03 0.000000000000000000e+00
1.350000000000000000e+03 0.000000000000000000e+00
1.351000000000000000e+03 0.000000000000000000e+00
1.352000000000000000e+03 0.000000000000000000e+00
1.353000000000000000e+03 0.000000000000000000e+00
1.354000000000000000e+03 0.000000000000000000e+00
1.355000000000000000e+03 0.000000000000000000e+00
1.356000000000000000e+03 0.000000000000000000e+00
1.357000000000000000e+03 0.000000000000000000e+00
1.358000000000000000e+03 0.000000000000000000e+00
1.359000000000000000e+03 0.000000000000000000e+00
1.360000000000000000e+03 0.000000000000000000e+00
1.361000000000000000e+03 0.000000000000000000e+00
1.362000000000000000e+03 0.000000000000000000e+00
1.363000000000000000e+03 0.000000000000000000e+00
1.364000000000000000e+03 0.000000000000000000e+00
1.365000000000000000e+03 0.000000000000000000e+00
1.366000000000000000e+03 0.000000000000000000e+00
1.367000000000000000e+03 0.000000000000000000e+00
1.368000000000000000e+03 0.000000000000000000e+00
1.369000000000000000e+03 0.000000000000000000e+00
1.370000000000000000e+03 0.000000000000000000e+00
1.371000000000000000e+03 0.000000000000000000e+00
1.372000000000000000e+03 0.000000000000000000e+00
1.373000000000000000e+03 0.000000000000000000e+00
1.374000000000000000e+03 0.000000000000000000e+00
1.375000000000000000e+03 0.000000000000000000e+00
1.376000000000000000e+03 0.000000000000000000e+00
1.377000000000000000e+03 0.000000000000000000e+00
1.378000000000000000e+03 0.000000000000000000e+00
1.379000000000000000e+03 0.000000000000000000e+00
1.380000000000000000e+03 0.000000000000000000e+00
1.381000000000000000e+03 0.000000000000000000e+00
1.382000000000000000e+03 0.000000000000000000e+00
1.383000000000000000e+03 0.000000000000000000e+00
1.384000000000000000e+03 0.000000000000000000e+00
1.385000000000000000e+03 0.000000000000000000e+00
1.386000000000000000e+03 0.000000000000000000e+00
1.387000000000000000e+03 0.000000000000000000e+00
1.388000000000000000e+03 0.000000000000000000e+00
1.389000000000000000e+03 0.000000000000000000e+00
1.390000000000000000e+03 0.000000000000000000e+00
1.391000000000000000e+03 0.000000000000000000e+00
1.392000000000000000e+03 0.000000000000000000e+00
1.393000000000000000e+03 0.000000000000000000e+00
1.394000000000000000e+03 0.000000000000000000e+00
1.395000000000000000e+03 0.000000000000000000e+00
1.396000000000000000e+03 0.000000000000000000e+00
1.397000000000000000e+03 0.000000000000000000e+00
1.398000000000000000e+03 0.000000000000000000e+00
1.399000000000000000e+03 0.000000000000000000e+00
1.400000000000000000e+03 0.000000000000000000e+00
1.401000000000000000e+03 0.000000000000000000e+00
1.402000000000000000e+03 0.000000000000000000e+00
1.403000000000000000e+03 0.000000000000000000e+00
1.404000000000000000e+03 0.000000000000000000e+00
1.405000000000000000e+03 0.000000000000000000e+00
1.406000000000000000e+03 0.000000000000000000e+00
1.407000000000000000e+03 0.000000000000000000e+00
1.408000000000000000e+03 0.000000000000000000e+00
1.409000000000000000e+03 0.000000000000000000e+00
1.410000000000000000e+03 0.000000000000000000e+00
1.411000000000000000e+03 0.000000000000000000e+00
1.412000000000000000e+03 0.000000000000000000e+00
1.413000000000000000e+03 0.000000000000000000e+00
1.414000000000000000e+03 0.000000000000000000e+00
1.415000000000000000e+03 0.000000000000000000e+00
1.416000000000000000e+03 0.000000000000000000e+00
1.417000000000000000e+03 0.000000000000000000e+00
1.418000000000000000e+03 0.000000000000000000e+00
1.419000000000000000e+03 0.000000000000000000e+00
1.420000000000000000e+03 0.000000000000000000e+00
1.421000000000000000e+03 0.000000000000000000e+00
1.422000000000000000e+03 0.000000000000000000e+00
1.423000000000000000e+03 0.000000000000000000e+00
1.424000000000000000e+03 0.000000000000000000e+00
1.425000000000000000e+03 0.000000000000000000e+00
1.426000000000000000e+03 0.000000000000000000e+00
1.427000000000000000e+03 0.000000000000000000e+00
1.428000000000000000e+03 0.000000000000000000e+00
1.429000000000000000e+03 0.000000000000000000e+00
1.430000000000000000e+03 0.000000000000000000e+00
1.431000000000000000e+03 0.000000000000000000e+00
1.432000000000000000e+03 0.000000000000000000e+00
1.433000000000000000e+03 0.000000000000000000e+00
1.434000000000000000e+03 0.000000000000000000e+00
1.435000000000000000e+03 0.000000000000000000e+00
1.436000000000000000e+03 0.000000000000000000e+00
1.437000000000000000e+03 0.000000000000000000e+00
1.438000000000000000e+03 0.000000000000000000e+00
1.439000000000000000e+03 0.000000000000000000e+00
1.440000000000000000e+03 0.000000000000000000e+00
1.441000000000000000e+03 0.000000000000000000e+00
1.442000000000000000e+03 0.000000000000000000e+00
1.443000000000000000e+03 0.000000000000000000e+00
1.444000000000000000e+03 0.000000000000000000e+00
1.445000000000000000e+03 0.000000000000000000e+00
1.446000000000000000e+03 0.000000000000000000e+00
1.447000000000000000e+03 0.000000000000000000e+00
1.448000000000000000e+03 0.000000000000000000e+00
1.449000000000000000e+03 0.000000000000000000e+00
1.450000000000000000e+03 0.000000000000000000e+00
1.451000000000000000e+03 0.000000000000000000e+00
1.452000000000000000e+03 0.000000000000000000e+00
1.453000000000000000e+03 0.000000000000000000e+00
1.454000000000000000e+03 0.000000000000000000e+00
1.455000000000000000e+03 0.000000000000000000e+00
1.456000000000000000e+03 0.000000000000000000e+00
1.457000000000000000e+03 0.000000000000000000e+00
1.458000000000000000e+03 0.000000000000000000e+00
1.459000000000000000e+03 0.000000000000000000e+00
1.460000000000000000e+03 0.000000000000000000e+00
1.461000000000000000e+03 0.000000000000000000e+00
1.462000000000000000e+03 0.000000000000000000e+00
1.463000000000000000e+03 0.000000000000000000e+00
1.464000000000000000e+03 0.000000000000000000e+00
1.465000000000000000e+03 0.000000000000000000e+00
1.466000000000000000e+03 0.000000000000000000e+00
1.467000000000000000e+03 0.000000000000000000e+00
1.468000000000000000e+03 0.000000000000000000e+00
1.469000000000000000e+03 0.000000000000000000e+00
1.470000000000000000e+03 0.000000000000000000e+00
1.471000000000000000e+03 0.000000000000000000e+00
1.472000000000000000e+03 0.000000000000000000e+00
1.473000000000000000e+03 0.000000000000000000e+00
1.474000000000000000e+03 0.000000000000000000e+00
1.475000000000000000e+03 0.000000000000000000e+00
1.476000000000000000e+03 0.000000000000000000e+00
1.477000000000000000e+03 0.000000000000000000e+00
1.478000000000000000e+03 0.000000000000000000e+00
1.479000000000000000e+03 0.000000000000000000e+00
1.480000000000000000e+03 0.000000000000000000e+00
1.481000000000000000e+03 0.000000000000000000e+00
1.482000000000000000e+03 0.000000000000000000e+00
1.483000000000000000e+03 0.000000000000000000e+00
1.484000000000000000e+03 0.000000000000000000e+00
1.485000000000000000e+03 0.000000000000000000e+00
1.486000000000000000e+03 0.000000000000000000e+00
1.487000000000000000e+03 0.000000000000000000e+00
1.488000000000000000e+03 0.000000000000000000e+00
1.489000000000000000e+03 0.000000000000000000e+00
1.490000000000000000e+03 0.000000000000000000e+00
1.491000000000000000e+03 0.000000000000000000e+00
1.492000000000000000e+03 0.000000000000000000e+00
1.493000000000000000e+03 0.000000000000000000e+00
1.494000000000000000e+03 0.000000000000000000e+00
1.495000000000000000e+03 0.000000000000000000e+00
1.496000000000000000e+03 0.000000000000000000e+00
1.497000000000000000e+03 0.000000000000000000e+00
1.498000000000000000e+03 0.000000000000000000e+00
1.499000000000000000e+03 0.000000000000000000e+00
1.500000000000000000e+03 0.000000000000000000e+00
