1.010000000000000000e+02 0.000000000000000000e+00
1.020000000000000000e+02 0.000000000000000000e+00
1.030000000000000000e+02 0.000000000000000000e+00
1.040000000000000000e+02 0.000000000000000000e+00
1.050000000000000000e+02 0.000000000000000000e+00
1.060000000000000000e+02 0.000000000000000000e+00
1.070000000000000000e+02 0.000000000000000000e+00
1.080000000000000000e+02 0.000000000000000000e+00
1.090000000000000000e+02 0.000000000000000000e+00
1.100000000000000000e+02 0.000000000000000000e+00
1.110000000000000000e+02 0.000000000000000000e+00
1.120000000000000000e+02 0.000000000000000000e+00
1.130000000000000000e+02 0.000000000000000000e+00
1.140000000000000000e+02 0.000000000000000000e+00
1.150000000000000000e+02 0.000000000000000000e+00
1.160000000000000000e+02 0.000000000000000000e+00
1.170000000000000000e+02 0.000000000000000000e+00
1.180000000000000000e+02 0.000000000000000000e+00
1.190000000000000000e+02 0.000000000000000000e+00
1.200000000000000000e+02 0.000000000000000000e+00
1.210000000000000000e+02 0.000000000000000000e+00
1.220000000000000000e+02 0.000000000000000000e+00
1.230000000000000000e+02 0.000000000000000000e+00
1.240000000000000000e+02 0.000000000000000000e+00
1.250000000000000000e+02 0.000000000000000000e+00
1.260000000000000000e+02 0.000000000000000000e+00
1.270000000000000000e+02 0.000000000000000000e+00
1.280000000000000000e+02 0.000000000000000000e+00
1.290000000000000000e+02 0.000000000000000000e+00
1.300000000000000000e+02 0.000000000000000000e+00
1.310000000000000000e+02 0.000000000000000000e+00
1.320000000000000000e+02 0.000000000000000000e+00
1.330000000000000000e+02 0.000000000000000000e+00
1.340000000000000000e+02 0.000000000000000000e+00
1.350000000000000000e+02 0.000000000000000000e+00
1.360000000000000000e+02 0.000000000000000000e+00
1.370000000000000000e+02 0.000000000000000000e+00
1.380000000000000000e+02 0.000000000000000000e+00
1.390000000000000000e+02 0.000000000000000000e+00
1.400000000000000000e+02 0.000000000000000000e+00
1.410000000000000000e+02 0.000000000000000000e+00
1.420000000000000000e+02 0.000000000000000000e+00
1.430000000000000000e+02 0.000000000000000000e+00
1.440000000000000000e+02 0.000000000000000000e+00
1.450000000000000000e+02 0.000000000000000000e+00
1.460000000000000000e+02 0.000000000000000000e+00
1.470000000000000000e+02 0.000000000000000000e+00
1.480000000000000000e+02 0.000000000000000000e+00
1.490000000000000000e+02 0.000000000000000000e+00
1.500000000000000000e+02 0.000000000000000000e+00
1.510000000000000000e+02 0.000000000000000000e+00
1.520000000000000000e+02 0.000000000000000000e+00
1.530000000000000000e+02 0.000000000000000000e+00
1.540000000000000000e+02 0.000000000000000000e+00
1.550000000000000000e+02 0.000000000000000000e+00
1.560000000000000000e+02 0.000000000000000000e+00
1.570000000000000000e+02 0.000000000000000000e+00
1.580000000000000000e+02 0.000000000000000000e+00
1.590000000000000000e+02 0.000000000000000000e+00
1.600000000000000000e+02 0.000000000000000000e+00
1.610000000000000000e+02 0.000000000000000000e+00
1.620000000000000000e+02 0.000000000000000000e+00
1.630000000000000000e+02 0.000000000000000000e+00
1.640000000000000000e+02 0.000000000000000000e+00
1.650000000000000000e+02 0.000000000000000000e+00
1.660000000000000000e+02 0.000000000000000000e+00
1.670000000000000000e+02 0.000000000000000000e+00
1.680000000000000000e+02 0.000000000000000000e+00
1.690000000000000000e+02 0.000000000000000000e+00
1.700000000000000000e+02 0.000000000000000000e+00
1.710000000000000000e+02 0.000000000000000000e+00
1.720000000000000000e+02 0.000000000000000000e+00
1.730000000000000000e+02 0.000000000000000000e+00
1.740000000000000000e+02 0.000000000000000000e+00
1.750000000000000000e+02 0.000000000000000000e+00
1.760000000000000000e+02 0.000000000000000000e+00
1.770000000000000000e+02 0.000000000000000000e+00
1.780000000000000000e+02 0.000000000000000000e+00
1.790000000000000000e+02 0.000000000000000000e+00
1.800000000000000000e+02 0.000000000000000000e+00
1.810000000000000000e+02 0.000000000000000000e+00
1.820000000000000000e+02 0.000000000000000000e+00
1.830000000000000000e+02 0.000000000000000000e+00
1.840000000000000000e+02 0.000000000000000000e+00
1.850000000000000000e+02 0.000000000000000000e+00
1.860000000000000000e+02 0.000000000000000000e+00
1.870000000000000000e+02 0.000000000000000000e+00
1.880000000000000000e+02 0.000000000000000000e+00
1.890000000000000000e+02 0.000000000000000000e+00
1.900000000000000000e+02 0.000000000000000000e+00
1.910000000000000000e+02 0.000000000000000000e+00
1.920000000000000000e+02 0.000000000000000000e+00
1.930000000000000000e+02 0.000000000000000000e+00
1.940000000000000000e+02 0.000000000000000000e+00
1.950000000000000000e+02 0.000000000000000000e+00
1.960000000000000000e+02 0.000000000000000000e+00
1.970000000000000000e+02 6.896967280211661888e-02
1.980000000000000000e+02 1.542405527069078186e+00
1.990000000000000000e+02 4.137232649937779172e+00
2.000000000000000000e+02 5.251799780336028789e+00
2.010000000000000000e+02 7.193374314042793927e+00
2.020000000000000000e+02 1.291221598092080391e+01
2.030000000000000000e+02 1.706927061605475160e+01
2.040000000000000000e+02 1.793205268409044351e+01
2.050000000000000000e+02 1.896778571132309921e+01
2.060000000000000000e+02 2.206866302012032577e+01
2.070000000000000000e+02 2.425478056004978455e+01
2.080000000000000000e+02 2.536884076109497599e+01
2.090000000000000000e+02 2.414059521675998354e+01
2.100000000000000000e+02 2.214634307819953207e+01
2.110000000000000000e+02 2.206868772708419968e+01
2.120000000000000000e+02 1.881169491599254684e+01
2.130000000000000000e+02 1.738794433312591536e+01
2.140000000000000000e+02 1.547021131895473012e+01
2.150000000000000000e+02 1.095762270234390101e+01
2.160000000000000000e+02 8.691530739265715511e+00
2.170000000000000000e+02 8.604405027374529169e+00
2.180000000000000000e+02 7.755467323169437321e+00
2.190000000000000000e+02 5.774655850238530341e+00
2.200000000000000000e+02 5.096037926586477695e+00
2.210000000000000000e+02 6.508852550093329192e+00
2.220000000000000000e+02 6.584022655258260137e+00
2.230000000000000000e+02 5.453818299668179215e+00
2.240000000000000000e+02 4.861509751503837684e+00
2.250000000000000000e+02 6.779354420659605474e+00
2.260000000000000000e+02 5.399893135034243841e+00
2.270000000000000000e+02 4.823531915992548491e+00
2.280000000000000000e+02 6.130712231072394935e+00
2.290000000000000000e+02 6.570895596971582542e+00
2.300000000000000000e+02 6.262413376477916849e+00
2.310000000000000000e+02 4.881588961833618789e+00
2.320000000000000000e+02 3.823463475005185241e+00
2.330000000000000000e+02 4.694958083385188274e+00
2.340000000000000000e+02 7.741811839452378052e+00
2.350000000000000000e+02 8.176354542003728909e+00
2.360000000000000000e+02 7.794496199958514282e+00
2.370000000000000000e+02 8.295420448247252665e+00
2.380000000000000000e+02 9.991367766231061154e+00
2.390000000000000000e+02 1.210214488487863527e+01
2.400000000000000000e+02 1.354277684570718243e+01
2.410000000000000000e+02 1.418158933001452127e+01
2.420000000000000000e+02 1.526609556108690668e+01
2.430000000000000000e+02 1.638054243052673442e+01
2.440000000000000000e+02 1.891253655880526097e+01
2.450000000000000000e+02 2.190892385812073684e+01
2.460000000000000000e+02 2.455347662795519881e+01
2.470000000000000000e+02 2.629156489110141948e+01
2.480000000000000000e+02 2.754348826384568127e+01
2.490000000000000000e+02 2.832661410618001341e+01
2.500000000000000000e+02 2.806006148724330984e+01
2.510000000000000000e+02 2.746875611906243364e+01
2.520000000000000000e+02 2.892947167980093326e+01
2.530000000000000000e+02 2.883148929060360288e+01
2.540000000000000000e+02 2.815592244140219691e+01
2.550000000000000000e+02 2.747598135034225564e+01
2.560000000000000000e+02 2.672370509645302761e+01
2.570000000000000000e+02 2.603294459560349594e+01
2.580000000000000000e+02 2.340233866210328983e+01
2.590000000000000000e+02 2.079406717278573424e+01
2.600000000000000000e+02 1.974792950642886069e+01
2.610000000000000000e+02 1.898325510267578409e+01
2.620000000000000000e+02 1.758518194150590119e+01
2.630000000000000000e+02 1.550659219825793400e+01
2.640000000000000000e+02 1.383558009541586742e+01
2.650000000000000000e+02 1.359347148724330623e+01
2.660000000000000000e+02 1.319712924289569145e+01
2.670000000000000000e+02 1.163636409458623255e+01
2.680000000000000000e+02 9.388168883219188743e+00
2.690000000000000000e+02 7.445036329599677316e+00
2.700000000000000000e+02 6.814669146027821256e+00
2.710000000000000000e+02 4.684537719352887208e+00
2.720000000000000000e+02 3.255170551960177239e+00
2.730000000000000000e+02 3.396002849823677838e+00
2.740000000000000000e+02 3.722436205144175947e+00
2.750000000000000000e+02 1.382758056834675342e+00
2.760000000000000000e+02 2.880633322962034448e+00
2.770000000000000000e+02 3.383155992534201850e+00
2.780000000000000000e+02 1.868556675171113124e+00
2.790000000000000000e+02 1.597547543663132341e+00
2.800000000000000000e+02 2.020172496662427652e-01
2.810000000000000000e+02 4.201269887990223828e-01
2.820000000000000000e+02 4.958672345986314678e-01
2.830000000000000000e+02 8.435001192698809991e-01
2.840000000000000000e+02 6.159379937772184732e-01
2.850000000000000000e+02 7.360562831362639225e-01
2.860000000000000000e+02 2.690330043559365780e-01
2.870000000000000000e+02 1.305509026343057988e+00
2.880000000000000000e+02 2.245221256378335806e+00
2.890000000000000000e+02 1.866946509645304397e+00
2.900000000000000000e+02 1.642061687616677368e+00
2.910000000000000000e+02 1.513384441817053006e+00
2.920000000000000000e+02 1.043103722464216343e+00
2.930000000000000000e+02 1.103900835926150126e-01
2.940000000000000000e+02 7.318716992948968159e-01
2.950000000000000000e+02 8.442741138767854148e-01
2.960000000000000000e+02 5.141231435386821591e-01
2.970000000000000000e+02 3.007007515553732913e-01
2.980000000000000000e+02 5.654778911014324283e-01
2.990000000000000000e+02 3.433711555693778061e-01
3.000000000000000000e+02 1.663464653670676530e-01
3.010000000000000000e+02 1.054766127461158748e-01
3.020000000000000000e+02 3.200661385604716136e-01
3.030000000000000000e+02 2.612315318332628422e+00
3.040000000000000000e+02 3.048237072184201590e+00
3.050000000000000000e+02 2.866893787595934384e+00
3.060000000000000000e+02 3.717539937149961116e+00
3.070000000000000000e+02 5.424953691765198371e+00
3.080000000000000000e+02 4.504403469819549422e+00
3.090000000000000000e+02 4.807034263223402881e+00
3.100000000000000000e+02 4.644855752333541865e+00
3.110000000000000000e+02 3.660514549471059365e+00
3.120000000000000000e+02 4.972750452395789722e+00
3.130000000000000000e+02 6.303688493466093945e+00
3.140000000000000000e+02 6.680420525202240611e+00
3.150000000000000000e+02 6.851961405310113662e+00
3.160000000000000000e+02 7.423139497407184706e+00
3.170000000000000000e+02 7.738013861854393660e+00
3.180000000000000000e+02 1.037580946733034892e+01
3.190000000000000000e+02 1.069820373573943506e+01
3.200000000000000000e+02 9.172441059933625240e+00
3.210000000000000000e+02 9.301068565027943436e+00
3.220000000000000000e+02 1.277801309271931274e+01
3.230000000000000000e+02 1.146275852343432433e+01
3.240000000000000000e+02 1.015024848620617171e+01
3.250000000000000000e+02 1.055204679734496231e+01
3.260000000000000000e+02 9.266797146204902802e+00
3.270000000000000000e+02 8.000125014312382987e+00
3.280000000000000000e+02 9.283942500311125556e+00
3.290000000000000000e+02 1.073854793861468515e+01
3.300000000000000000e+02 1.052984674341422533e+01
3.310000000000000000e+02 9.528139424393277324e+00
3.320000000000000000e+02 9.573918884695153508e+00
3.330000000000000000e+02 8.723589669570607441e+00
3.340000000000000000e+02 8.028193817050418346e+00
3.350000000000000000e+02 8.334132129018922086e+00
3.360000000000000000e+02 6.318735039825735811e+00
3.370000000000000000e+02 6.551453963078219367e+00
3.380000000000000000e+02 6.961926106616878940e+00
3.390000000000000000e+02 7.370388114084182263e+00
3.400000000000000000e+02 8.405436055382700999e+00
3.410000000000000000e+02 7.056828814146400397e+00
3.420000000000000000e+02 5.632839103298088013e+00
3.430000000000000000e+02 4.244469448039854598e+00
3.440000000000000000e+02 3.473094098319852829e+00
3.450000000000000000e+02 3.953699174237709446e+00
3.460000000000000000e+02 2.677943695913726163e+00
3.470000000000000000e+02 3.350461060970537641e+00
3.480000000000000000e+02 3.017496971375221548e+00
3.490000000000000000e+02 1.255156944617298764e+00
3.500000000000000000e+02 1.998809986312733322e+00
3.510000000000000000e+02 2.159780749429577984e+00
3.520000000000000000e+02 2.083044042107446092e+00
3.530000000000000000e+02 2.102908886354211138e+00
3.540000000000000000e+02 2.348824939639089227e+00
3.550000000000000000e+02 2.747568545944826912e+00
3.560000000000000000e+02 2.296437972003327221e+00
3.570000000000000000e+02 1.176029846504908827e+00
3.580000000000000000e+02 6.053061200995635271e-01
3.590000000000000000e+02 1.302661357113220841e+00
3.600000000000000000e+02 2.928148328562555136e+00
3.610000000000000000e+02 1.293291839867289461e+00
3.620000000000000000e+02 3.468198029454461206e-01
3.630000000000000000e+02 7.485611829495890657e-01
3.640000000000000000e+02 1.390769953951454418e+00
3.650000000000000000e+02 1.776885578303257107e+00
3.660000000000000000e+02 1.383353678075088355e+00
3.670000000000000000e+02 1.704213036714368190e+00
3.680000000000000000e+02 1.831684683882995213e+00
3.690000000000000000e+02 8.522496139804991433e-01
3.700000000000000000e+02 2.107854950840078789e+00
3.710000000000000000e+02 3.168285662933020497e+00
3.720000000000000000e+02 3.241648355320467356e+00
3.730000000000000000e+02 2.297411519809154257e+00
3.740000000000000000e+02 7.121640790292348422e-01
3.750000000000000000e+02 1.435501233561499168e+00
3.760000000000000000e+02 4.658262028203959959e-01
3.770000000000000000e+02 3.832125090230307229e-01
3.780000000000000000e+02 1.742215144488496181e-01
3.790000000000000000e+02 9.078731847780946440e-01
3.800000000000000000e+02 8.361814044804014578e-01
3.810000000000000000e+02 1.953866559900543642e-01
3.820000000000000000e+02 1.813062496889240316e-01
3.830000000000000000e+02 2.129298697365689663e-01
3.840000000000000000e+02 6.529050298693215293e-01
3.850000000000000000e+02 1.349559178971407425e+00
3.860000000000000000e+02 5.970127156191487039e-01
3.870000000000000000e+02 4.363435183571858222e-01
3.880000000000000000e+02 2.499781545322640186e-01
3.890000000000000000e+02 5.608713416303626742e-01
3.900000000000000000e+02 1.638302196639681019e-01
3.910000000000000000e+02 5.285273683882896201e-01
3.920000000000000000e+02 3.242883947940001788e-01
3.930000000000000000e+02 3.094514963700460974e-01
3.940000000000000000e+02 8.088380057332660023e-02
3.950000000000000000e+02 2.333357591785902574e-01
3.960000000000000000e+02 1.187196776270546816e-01
3.970000000000000000e+02 1.890889511619973096e-01
3.980000000000000000e+02 8.953156262186134917e-01
3.990000000000000000e+02 2.176964694461712035e+00
4.000000000000000000e+02 1.817391312383322299e+00
4.010000000000000000e+02 1.051518202447626837e+00
4.020000000000000000e+02 1.182431960182489084e+00
4.030000000000000000e+02 2.114863617921597605e+00
4.040000000000000000e+02 2.372587604231487290e+00
4.050000000000000000e+02 2.232297267938611718e+00
4.060000000000000000e+02 1.412728304501123633e+00
4.070000000000000000e+02 2.056384287077402728e+00
4.080000000000000000e+02 3.754561412899207529e+00
4.090000000000000000e+02 3.218142283136274262e+00
4.100000000000000000e+02 2.817905450943783308e+00
4.110000000000000000e+02 3.275104391953539196e+00
4.120000000000000000e+02 3.238488661481033759e+00
4.130000000000000000e+02 2.956657278158050239e+00
4.140000000000000000e+02 4.200916916614804819e+00
4.150000000000000000e+02 4.767037325866002817e+00
4.160000000000000000e+02 4.634106547396811493e+00
4.170000000000000000e+02 4.609375975938602821e+00
4.180000000000000000e+02 4.569172390168017905e+00
4.190000000000000000e+02 3.774531439327942550e+00
4.200000000000000000e+02 3.813165419207631857e+00
4.210000000000000000e+02 2.567636494503205746e+00
4.220000000000000000e+02 1.223793639079029605e+00
4.230000000000000000e+02 1.003034030491606776e+00
4.240000000000000000e+02 1.691192101638672840e+00
4.250000000000000000e+02 1.872885349512550368e+00
4.260000000000000000e+02 2.468012714582056066e+00
4.270000000000000000e+02 2.316546459240805600e+00
4.280000000000000000e+02 1.651313323102449493e+00
4.290000000000000000e+02 1.847092697158260410e+00
4.300000000000000000e+02 2.142572953951454640e+00
4.310000000000000000e+02 2.432479265035259797e+00
4.320000000000000000e+02 2.761409702551333112e+00
4.330000000000000000e+02 2.987922150798589360e+00
4.340000000000000000e+02 2.831629625466614453e+00
4.350000000000000000e+02 2.360274751711265218e+00
4.360000000000000000e+02 1.011012090852533518e+00
4.370000000000000000e+02 1.203745318954796417e+00
4.380000000000000000e+02 1.567353251607544351e+00
4.390000000000000000e+02 4.359386210329806444e-01
4.400000000000000000e+02 2.560636189547950803e+00
4.410000000000000000e+02 2.751071699439944673e+00
4.420000000000000000e+02 3.128902264467960492e+00
4.430000000000000000e+02 2.751720456751766353e+00
4.440000000000000000e+02 6.825456270483454269e-01
4.450000000000000000e+02 1.965584031736180570e+00
4.460000000000000000e+02 2.875958057871793816e+00
4.470000000000000000e+02 5.040541804397350667e+00
4.480000000000000000e+02 5.131429815805732098e+00
4.490000000000000000e+02 2.184025076747569738e+00
4.500000000000000000e+02 3.994976313005580870e+00
4.510000000000000000e+02 2.171995279195247264e+00
4.520000000000000000e+02 2.143448130470853030e+00
4.530000000000000000e+02 3.905474589504239091e+00
4.540000000000000000e+02 5.182665824517722619e+00
4.550000000000000000e+02 5.404550419415060425e+00
4.560000000000000000e+02 5.610128697780543128e+00
4.570000000000000000e+02 4.938629610535047121e+00
4.580000000000000000e+02 4.863702263223413702e+00
4.590000000000000000e+02 5.258179622277524778e+00
4.600000000000000000e+02 4.374146628369981471e+00
4.610000000000000000e+02 6.169770679941967373e+00
4.620000000000000000e+02 6.382055966604423425e+00
4.630000000000000000e+02 6.029610706345913229e+00
4.640000000000000000e+02 6.281167092097066806e+00
4.650000000000000000e+02 6.463389408214063714e+00
4.660000000000000000e+02 5.792195652426382679e+00
4.670000000000000000e+02 6.606939668326051951e+00
4.680000000000000000e+02 6.042002064716901266e+00
4.690000000000000000e+02 4.742807749222152758e+00
4.700000000000000000e+02 5.240006982783640410e+00
4.710000000000000000e+02 7.358292951462342302e+00
4.720000000000000000e+02 6.758673884463794579e+00
4.730000000000000000e+02 5.838120445550715409e+00
4.740000000000000000e+02 6.727127493258651114e+00
4.750000000000000000e+02 8.526198854179638076e+00
4.760000000000000000e+02 7.844504236050601875e+00
4.770000000000000000e+02 7.473794701306783139e+00
4.780000000000000000e+02 8.269629535158710354e+00
4.790000000000000000e+02 8.477179514830934792e+00
4.800000000000000000e+02 7.895532684920139488e+00
4.810000000000000000e+02 8.591747243103071696e+00
4.820000000000000000e+02 9.035037100808965604e+00
4.830000000000000000e+02 9.257861635345367546e+00
4.840000000000000000e+02 7.997228230865001564e+00
4.850000000000000000e+02 6.894370787181036242e+00
4.860000000000000000e+02 8.885231219456542817e+00
4.870000000000000000e+02 9.059974807716244527e+00
4.880000000000000000e+02 7.867388318191260943e+00
4.890000000000000000e+02 8.200886328562557281e+00
4.900000000000000000e+02 8.743922337274421253e+00
4.910000000000000000e+02 7.167048900435598391e+00
4.920000000000000000e+02 6.670212465463592366e+00
4.930000000000000000e+02 6.487590610869112595e+00
4.940000000000000000e+02 5.622594966811857553e+00
4.950000000000000000e+02 5.128458133374833139e+00
4.960000000000000000e+02 5.510440760423145790e+00
4.970000000000000000e+02 5.340782931356282681e+00
4.980000000000000000e+02 5.198692906658371804e+00
4.990000000000000000e+02 5.311195626011199877e+00
5.000000000000000000e+02 5.030654840729979149e+00
5.010000000000000000e+02 4.286083669570637689e+00
5.020000000000000000e+02 3.779888915785114101e+00
5.030000000000000000e+02 3.502268723143925566e+00
5.040000000000000000e+02 3.388258650902302715e+00
5.050000000000000000e+02 3.415178614187926787e+00
5.060000000000000000e+02 3.593093449191208322e+00
5.070000000000000000e+02 3.717102596556730365e+00
5.080000000000000000e+02 3.052526356357603277e+00
5.090000000000000000e+02 3.140597108483731414e+00
5.100000000000000000e+02 4.307330365276928141e+00
5.110000000000000000e+02 4.505597666874082030e+00
5.120000000000000000e+02 2.854152493673462576e+00
5.130000000000000000e+02 1.557953351794231445e+00
5.140000000000000000e+02 2.590346497718779784e+00
5.150000000000000000e+02 4.163193041070326395e+00
5.160000000000000000e+02 3.881857494503204720e+00
5.170000000000000000e+02 3.140926745541284149e+00
5.180000000000000000e+02 4.219806499066608652e+00
5.190000000000000000e+02 4.528714679527056752e+00
5.200000000000000000e+02 1.055878897967880370e+00
5.210000000000000000e+02 5.576308234806368613e-01
5.220000000000000000e+02 1.367228098299394956e+00
5.230000000000000000e+02 9.385328989835046709e-01
5.240000000000000000e+02 3.381848897946462262e+00
5.250000000000000000e+02 2.666149114060504033e+00
5.260000000000000000e+02 2.196053855009330924e+00
5.270000000000000000e+02 1.932820833437061570e+00
5.280000000000000000e+02 2.067289532973851873e+00
5.290000000000000000e+02 3.471541930927193764e+00
5.300000000000000000e+02 2.208780403858120689e+00
5.310000000000000000e+02 8.328340752799898716e-01
5.320000000000000000e+02 2.279537716863740293e+00
5.330000000000000000e+02 9.486140815182932950e-01
5.340000000000000000e+02 2.331798552467974517e+00
5.350000000000000000e+02 3.248583887575207552e+00
5.360000000000000000e+02 1.939951215307961219e+00
5.370000000000000000e+02 2.064478970569558203e-01
5.380000000000000000e+02 1.309317153080262086e+00
5.390000000000000000e+02 5.991026685334880364e-01
5.400000000000000000e+02 1.543247234598625228e+00
5.410000000000000000e+02 8.167472076332843445e-01
5.420000000000000000e+02 1.575110888612281101e+00
5.430000000000000000e+02 1.286884879278165306e+00
5.440000000000000000e+02 2.231559120514416406e-01
5.450000000000000000e+02 3.398210016594082061e-01
5.460000000000000000e+02 4.016402059583226714e-01
5.470000000000000000e+02 1.731524945239594881e+00
5.480000000000000000e+02 6.843869166147782401e-01
5.490000000000000000e+02 5.290339327940262182e-01
5.500000000000000000e+02 3.462784411947609220e-01
5.510000000000000000e+02 5.183916258813818789e-01
5.520000000000000000e+02 5.454393970130656522e-01
5.530000000000000000e+02 5.167069836133535432e-01
5.540000000000000000e+02 3.939865060141377606e-01
5.550000000000000000e+02 5.005934718937601335e-01
5.560000000000000000e+02 1.586219691972642121e+00
5.570000000000000000e+02 2.033862864371626333e+00
5.580000000000000000e+02 1.230960155361970232e+00
5.590000000000000000e+02 1.216526724746025967e-01
5.600000000000000000e+02 7.994350827457906705e-01
5.610000000000000000e+02 1.784097507156190421e+00
5.620000000000000000e+02 5.841391520431371553e-01
5.630000000000000000e+02 1.946782025098541924e+00
5.640000000000000000e+02 1.964154635137931315e+00
5.650000000000000000e+02 1.461570761045423827e+00
5.660000000000000000e+02 1.276990812694468458e+00
5.670000000000000000e+02 1.426684550715617839e+00
5.680000000000000000e+02 9.588213592615625336e-01
5.690000000000000000e+02 3.587722538892466617e-01
5.700000000000000000e+02 1.022804960796533269e+00
5.710000000000000000e+02 1.142062098112429425e+00
5.720000000000000000e+02 3.776695182161219494e-02
5.730000000000000000e+02 3.046829164073853180e-01
5.740000000000000000e+02 4.910153515868055374e-01
5.750000000000000000e+02 1.908493829495961691e+00
5.760000000000000000e+02 2.208893842356356441e+00
5.770000000000000000e+02 1.557102450642892988e+00
5.780000000000000000e+02 1.549003333125917647e+00
5.790000000000000000e+02 3.239318740510265471e+00
5.800000000000000000e+02 3.110569517212775192e+00
5.810000000000000000e+02 3.388856430823480981e+00
5.820000000000000000e+02 3.357201547604235614e+00
5.830000000000000000e+02 3.411083542306094341e+00
5.840000000000000000e+02 3.845317277950633272e+00
5.850000000000000000e+02 3.778211048942342831e+00
5.860000000000000000e+02 4.903783966396987992e+00
5.870000000000000000e+02 4.282611036714415675e+00
5.880000000000000000e+02 4.383702773952695253e+00
5.890000000000000000e+02 4.908430619373573833e+00
5.900000000000000000e+02 3.867517697158314505e+00
5.910000000000000000e+02 2.703881644886950042e+00
5.920000000000000000e+02 4.417410369010566384e+00
5.930000000000000000e+02 6.485913259282297894e+00
5.940000000000000000e+02 5.934126445135812666e+00
5.950000000000000000e+02 4.996208131922871054e+00
5.960000000000000000e+02 7.028759634723092731e+00
5.970000000000000000e+02 6.270610944617326155e+00
5.980000000000000000e+02 6.349866203899628303e+00
5.990000000000000000e+02 7.248841052478777414e+00
6.000000000000000000e+02 7.497562056004994702e+00
6.010000000000000000e+02 7.248652221530798911e+00
6.020000000000000000e+02 7.894506760423130487e+00
6.030000000000000000e+02 7.069864893175677345e+00
6.040000000000000000e+02 8.277907352001612651e+00
6.050000000000000000e+02 9.100310710493564770e+00
6.060000000000000000e+02 1.016360526446792534e+01
6.070000000000000000e+02 1.188531757726612348e+01
6.080000000000000000e+02 1.171506764413106616e+01
6.090000000000000000e+02 1.170267456959137320e+01
6.100000000000000000e+02 1.216254100186683829e+01
6.110000000000000000e+02 1.304615769390296975e+01
6.120000000000000000e+02 1.328451073636172985e+01
6.130000000000000000e+02 1.257694989836132038e+01
6.140000000000000000e+02 1.252486939236829500e+01
6.150000000000000000e+02 1.403359237710009211e+01
6.160000000000000000e+02 1.542349384152672442e+01
6.170000000000000000e+02 1.690444501763113649e+01
6.180000000000000000e+02 1.804041899605890364e+01
6.190000000000000000e+02 1.844130907902919603e+01
6.200000000000000000e+02 1.967365179215930127e+01
6.210000000000000000e+02 1.933958891101431021e+01
6.220000000000000000e+02 2.160758792988999133e+01
6.230000000000000000e+02 2.467096567309688027e+01
6.240000000000000000e+02 2.627862396390790778e+01
6.250000000000000000e+02 2.692092714789462704e+01
6.260000000000000000e+02 2.766528317776397472e+01
6.270000000000000000e+02 2.914417895042526396e+01
6.280000000000000000e+02 3.116516982576234085e+01
6.290000000000000000e+02 3.302782158680780356e+01
6.300000000000000000e+02 3.398685891308856810e+01
6.310000000000000000e+02 3.410075281833267269e+01
6.320000000000000000e+02 3.534379993569788780e+01
6.330000000000000000e+02 3.779112304293722957e+01
6.340000000000000000e+02 3.868985267109083992e+01
6.350000000000000000e+02 3.916726492221528844e+01
6.360000000000000000e+02 3.990983600497821016e+01
6.370000000000000000e+02 4.102053404811279336e+01
6.380000000000000000e+02 4.358113194150590175e+01
6.390000000000000000e+02 4.472397530180460024e+01
6.400000000000000000e+02 4.373482029863124865e+01
6.410000000000000000e+02 4.284826604646338666e+01
6.420000000000000000e+02 4.302051556938394583e+01
6.430000000000000000e+02 4.281684428749220217e+01
6.440000000000000000e+02 4.217695563576018714e+01
6.450000000000000000e+02 4.107306541588879867e+01
6.460000000000000000e+02 4.028795485791326314e+01
6.470000000000000000e+02 3.894746969508394585e+01
6.480000000000000000e+02 3.715440960381661739e+01
6.490000000000000000e+02 3.661774171541173928e+01
6.500000000000000000e+02 3.666567612321092895e+01
6.510000000000000000e+02 3.365797989421276526e+01
6.520000000000000000e+02 3.166423228375856169e+01
6.530000000000000000e+02 3.038699765608796710e+01
6.540000000000000000e+02 2.799236003941093998e+01
6.550000000000000000e+02 2.572697240406552410e+01
6.560000000000000000e+02 2.652025497822029365e+01
6.570000000000000000e+02 2.526130010783905888e+01
6.580000000000000000e+02 2.319434857083588497e+01
6.590000000000000000e+02 2.139647962870771991e+01
6.600000000000000000e+02 2.016351864164246166e+01
6.610000000000000000e+02 1.910907096453016507e+01
6.620000000000000000e+02 1.828792270483301863e+01
6.630000000000000000e+02 1.778217077975943283e+01
6.640000000000000000e+02 1.709582021364861149e+01
6.650000000000000000e+02 1.645517045426259983e+01
6.660000000000000000e+02 1.568662268975527496e+01
6.670000000000000000e+02 1.414747206596140217e+01
6.680000000000000000e+02 1.182791982991080815e+01
6.690000000000000000e+02 1.150083170883451089e+01
6.700000000000000000e+02 1.162148066583696249e+01
6.710000000000000000e+02 1.122859602572079929e+01
6.720000000000000000e+02 1.002901945198089884e+01
6.730000000000000000e+02 8.688554752748391508e+00
6.740000000000000000e+02 8.072691624144390232e+00
6.750000000000000000e+02 4.427414571873034888e+00
6.760000000000000000e+02 5.418627039410901958e+00
6.770000000000000000e+02 7.973594171333729719e+00
6.780000000000000000e+02 7.799872211574355951e+00
6.790000000000000000e+02 5.533027930304928788e+00
6.800000000000000000e+02 4.349497778261774528e+00
6.810000000000000000e+02 5.855113338104126264e+00
6.820000000000000000e+02 5.687184048745084652e+00
6.830000000000000000e+02 4.839193472308663146e+00
6.840000000000000000e+02 4.384894087741132651e+00
6.850000000000000000e+02 4.306416895249947530e+00
6.860000000000000000e+02 5.102595415681393298e+00
6.870000000000000000e+02 3.300178303671445601e+00
6.880000000000000000e+02 4.190266630367179168e+00
6.890000000000000000e+02 4.969197913503423436e+00
6.900000000000000000e+02 4.621319119892142169e+00
6.910000000000000000e+02 2.492375197054664593e+00
6.920000000000000000e+02 2.103099769342451353e+00
6.930000000000000000e+02 1.116890762912225110e+00
6.940000000000000000e+02 6.194086251815076327e-01
6.950000000000000000e+02 5.040892735946984615e-01
6.960000000000000000e+02 1.473050581829496108e+00
6.970000000000000000e+02 8.036862851513982831e-01
6.980000000000000000e+02 6.675659968886104023e-01
6.990000000000000000e+02 1.149957852727646168e+00
7.000000000000000000e+02 1.694112088759838430e+00
7.010000000000000000e+02 2.030003495747770170e+00
7.020000000000000000e+02 8.532311611698473186e-01
7.030000000000000000e+02 4.056389417254222529e-01
7.040000000000000000e+02 1.565523293507556257e+00
7.050000000000000000e+02 1.485009489525005000e+00
7.060000000000000000e+02 1.351710224388223747e+00
7.070000000000000000e+02 1.039404200373377662e+00
7.080000000000000000e+02 7.487523559427570197e-01
7.090000000000000000e+02 1.276804124193492429e-01
7.100000000000000000e+02 6.808673816635674170e-01
7.110000000000000000e+02 1.240587046670862836e+00
7.120000000000000000e+02 6.238030715619072852e-01
7.130000000000000000e+02 5.058544024061484290e-01
7.140000000000000000e+02 6.964170564198178814e-01
7.150000000000000000e+02 1.059264552997298381e+00
7.160000000000000000e+02 5.137429813316791716e-01
7.170000000000000000e+02 1.875597515245805980e+00
7.180000000000000000e+02 1.663556141879259043e+00
7.190000000000000000e+02 1.035724793818689538e+00
7.200000000000000000e+02 1.693426968562258828e-01
7.210000000000000000e+02 5.222581300559863138e-01
7.220000000000000000e+02 9.052029249118246357e-01
7.230000000000000000e+02 8.747553349927218447e-01
7.240000000000000000e+02 6.714248923459411600e-01
7.250000000000000000e+02 1.606788797759786114e+00
7.260000000000000000e+02 1.722952106387419358e+00
7.270000000000000000e+02 5.171290317361443289e-01
7.280000000000000000e+02 9.552449205559163659e-01
7.290000000000000000e+02 2.879625582745680701e-01
7.300000000000000000e+02 6.874965563161136162e-01
7.310000000000000000e+02 9.715029108068891084e-01
7.320000000000000000e+02 4.661057289506476686e-01
7.330000000000000000e+02 4.516240041484949619e-01
7.340000000000000000e+02 2.260153995021840223e-01
7.350000000000000000e+02 9.555212567399876677e-01
7.360000000000000000e+02 1.539397897324188413e+00
7.370000000000000000e+02 6.026246146027961492e-01
7.380000000000000000e+02 7.077723254512034989e-01
7.390000000000000000e+02 8.268262321094348444e-01
7.400000000000000000e+02 2.596558276913564445e+00
7.410000000000000000e+02 3.494263396390792309e+00
7.420000000000000000e+02 3.601209669155759574e+00
7.430000000000000000e+02 3.835402110765424144e+00
7.440000000000000000e+02 2.205425756689485262e+00
7.450000000000000000e+02 3.257890860609824912e+00
7.460000000000000000e+02 3.604029158058497107e+00
7.470000000000000000e+02 3.348396824932589499e+00
7.480000000000000000e+02 3.628982187927820569e+00
7.490000000000000000e+02 3.945291957477707445e+00
7.500000000000000000e+02 4.093192741132552825e+00
7.510000000000000000e+02 4.830821418792821120e+00
7.520000000000000000e+02 5.960654419328093923e+00
7.530000000000000000e+02 5.825407950840035376e+00
7.540000000000000000e+02 5.656462701099388646e+00
7.550000000000000000e+02 5.946888727291540278e+00
7.560000000000000000e+02 5.035886653806248781e+00
7.570000000000000000e+02 6.184835321095244254e+00
7.580000000000000000e+02 6.746700299460814065e+00
7.590000000000000000e+02 7.141194401783858225e+00
7.600000000000000000e+02 7.372465163866417370e+00
7.610000000000000000e+02 7.814640073620910954e+00
7.620000000000000000e+02 8.754922553827015008e+00
7.630000000000000000e+02 8.983260252229829490e+00
7.640000000000000000e+02 9.340284581086704563e+00
7.650000000000000000e+02 1.156326690313217398e+01
7.660000000000000000e+02 1.158405224019910840e+01
7.670000000000000000e+02 1.133922734909773844e+01
7.680000000000000000e+02 1.224298938809376303e+01
7.690000000000000000e+02 1.260270188757520060e+01
7.700000000000000000e+02 1.333480307405104703e+01
7.710000000000000000e+02 1.404817956440573745e+01
7.720000000000000000e+02 1.446826978635138161e+01
7.730000000000000000e+02 1.458002465671022563e+01
7.740000000000000000e+02 1.505825259904582758e+01
7.750000000000000000e+02 1.619497515245800301e+01
7.760000000000000000e+02 1.757625248288737652e+01
7.770000000000000000e+02 1.819439539099771963e+01
7.780000000000000000e+02 1.768202636872667100e+01
7.790000000000000000e+02 1.755083775565236337e+01
7.800000000000000000e+02 1.898963304293716448e+01
7.810000000000000000e+02 1.982896568228949974e+01
7.820000000000000000e+02 1.862465221530802140e+01
7.830000000000000000e+02 1.842427210329807252e+01
7.840000000000000000e+02 1.892838386768975667e+01
7.850000000000000000e+02 1.826437378344741091e+01
7.860000000000000000e+02 1.822031953329184617e+01
7.870000000000000000e+02 1.921123932393198785e+01
7.880000000000000000e+02 1.939701247044181187e+01
7.890000000000000000e+02 1.849155934660858591e+01
7.900000000000000000e+02 1.912437615097470101e+01
7.910000000000000000e+02 1.660201941298485906e+01
7.920000000000000000e+02 1.801508827421696424e+01
7.930000000000000000e+02 1.793943512341836666e+01
7.940000000000000000e+02 1.595664589919104515e+01
7.950000000000000000e+02 1.501586471478945128e+01
7.960000000000000000e+02 1.605017497407176919e+01
7.970000000000000000e+02 1.611197425637835323e+01
7.980000000000000000e+02 1.398694561916617829e+01
7.990000000000000000e+02 1.374378275046670694e+01
8.000000000000000000e+02 1.464521799626632159e+01
8.010000000000000000e+02 1.393595151213445504e+01
8.020000000000000000e+02 1.246853390790292693e+01
8.030000000000000000e+02 1.295579476664591745e+01
8.040000000000000000e+02 1.303321634100809412e+01
8.050000000000000000e+02 1.183152886745489241e+01
8.060000000000000000e+02 1.109824071354490549e+01
8.070000000000000000e+02 1.222660286395683116e+01
8.080000000000000000e+02 1.155357207965145960e+01
8.090000000000000000e+02 9.337728142501571682e+00
8.100000000000000000e+02 1.086614535047695185e+01
8.110000000000000000e+02 1.146400167807509440e+01
8.120000000000000000e+02 1.033945925948976274e+01
8.130000000000000000e+02 1.029942578183325352e+01
8.140000000000000000e+02 1.029235791744452300e+01
8.150000000000000000e+02 1.072659502177967816e+01
8.160000000000000000e+02 1.117369419742845871e+01
8.170000000000000000e+02 1.007855665214687946e+01
8.180000000000000000e+02 9.682838717693437403e+00
8.190000000000000000e+02 8.580341507363629105e+00
8.200000000000000000e+02 7.910294066376270194e+00
8.210000000000000000e+02 8.614570581829479323e+00
8.220000000000000000e+02 9.071388467952701262e+00
8.230000000000000000e+02 8.208099524165101357e+00
8.240000000000000000e+02 7.390902732005806719e+00
8.250000000000000000e+02 7.617392155154520061e+00
8.260000000000000000e+02 7.948310858742997809e+00
8.270000000000000000e+02 6.515965193113411935e+00
8.280000000000000000e+02 6.486127777432026953e+00
8.290000000000000000e+02 7.194199124248069843e+00
8.300000000000000000e+02 7.477619350964550549e+00
8.310000000000000000e+02 7.886920912258860383e+00
8.320000000000000000e+02 7.567210670400366546e+00
8.330000000000000000e+02 6.749955880132735508e+00
8.340000000000000000e+02 6.792630012860398914e+00
8.350000000000000000e+02 6.785538794648418914e+00
8.360000000000000000e+02 6.272923641849866172e+00
8.370000000000000000e+02 5.764362443891308807e+00
8.380000000000000000e+02 5.782173173822858558e+00
8.390000000000000000e+02 5.740178687266690893e+00
8.400000000000000000e+02 5.279276855631601428e+00
8.410000000000000000e+02 5.556408889442034038e+00
8.420000000000000000e+02 5.100488524678602253e+00
8.430000000000000000e+02 4.462598659406743273e+00
8.440000000000000000e+02 4.328746894835097336e+00
8.450000000000000000e+02 4.359487130651187314e+00
8.460000000000000000e+02 4.303579088985607370e+00
8.470000000000000000e+02 5.904487913503432495e+00
8.480000000000000000e+02 5.015935882804417822e+00
8.490000000000000000e+02 5.804520138767862214e+00
8.500000000000000000e+02 4.979056018668405414e+00
8.510000000000000000e+02 4.001431496577468216e+00
8.520000000000000000e+02 4.625309673304298208e+00
8.530000000000000000e+02 3.644420059738642248e+00
8.540000000000000000e+02 4.853788775980111936e+00
8.550000000000000000e+02 5.754008601534957634e+00
8.560000000000000000e+02 4.509621711678046374e+00
8.570000000000000000e+02 4.348121465256205909e+00
8.580000000000000000e+02 5.329673389545775741e+00
8.590000000000000000e+02 5.772440976773107302e+00
8.600000000000000000e+02 5.125032229412933127e+00
8.610000000000000000e+02 4.005193056004928032e+00
8.620000000000000000e+02 2.872527947739505372e+00
8.630000000000000000e+02 2.882039680149337979e+00
8.640000000000000000e+02 2.890437432690317721e+00
8.650000000000000000e+02 3.438281165698930941e+00
8.660000000000000000e+02 3.477780527276513212e+00
8.670000000000000000e+02 2.167081003111396065e+00
8.680000000000000000e+02 2.196276360431358210e+00
8.690000000000000000e+02 2.791005421904171335e+00
8.700000000000000000e+02 1.026264179008485877e+00
8.710000000000000000e+02 1.715675088345148369e+00
8.720000000000000000e+02 2.949990389545766867e+00
8.730000000000000000e+02 3.410089184194151635e+00
8.740000000000000000e+02 2.523576075295473231e+00
8.750000000000000000e+02 7.333241203070508529e-01
8.760000000000000000e+02 2.776219385812081164e+00
8.770000000000000000e+02 1.939495464841284544e+00
8.780000000000000000e+02 1.584007347023451251e+00
8.790000000000000000e+02 3.220010478531462716e+00
8.800000000000000000e+02 3.514620393694279255e+00
8.810000000000000000e+02 1.784132772246453946e+00
8.820000000000000000e+02 1.022256950425227684e+00
8.830000000000000000e+02 1.966346050404482959e+00
8.840000000000000000e+02 4.140859958514780947e-01
8.850000000000000000e+02 1.163878668948354456e+00
8.860000000000000000e+02 1.443457231487241588e+00
8.870000000000000000e+02 1.481669511719565291e+00
8.880000000000000000e+02 2.116306057445050293e+00
8.890000000000000000e+02 2.438139827421681449e+00
8.900000000000000000e+02 1.124409581207195030e+00
8.910000000000000000e+02 7.383257648278711560e-01
8.920000000000000000e+02 9.579549244970169131e-01
8.930000000000000000e+02 1.391317341422938947e+00
8.940000000000000000e+02 5.035919562422108697e-01
8.950000000000000000e+02 4.042982832856340664e-02
8.960000000000000000e+02 6.375832989006451346e-01
8.970000000000000000e+02 9.042872364164107335e-01
8.980000000000000000e+02 1.738667854801904777e+00
8.990000000000000000e+02 1.579097509645303488e+00
9.000000000000000000e+02 4.266258083385148780e-01
9.010000000000000000e+02 5.307170970752973505e-01
9.020000000000000000e+02 1.120799015142083466e+00
9.030000000000000000e+02 1.473287153909978109e+00
9.040000000000000000e+02 8.031580535158699963e-01
9.050000000000000000e+02 4.693803858120579875e-01
9.060000000000000000e+02 2.024357445758136809e+00
9.070000000000000000e+02 6.489428494088267385e-01
9.080000000000000000e+02 4.301214499066594033e-01
9.090000000000000000e+02 1.561721578095831786e+00
9.100000000000000000e+02 1.918580199958515697e+00
9.110000000000000000e+02 6.472646216552951914e-01
9.120000000000000000e+02 3.695188701514210416e-01
9.130000000000000000e+02 7.296643291848156077e-01
9.140000000000000000e+02 5.779947751970311298e-01
9.150000000000000000e+02 2.575043387264027706e-01
9.160000000000000000e+02 2.064127276498616548e-01
9.170000000000000000e+02 5.017087432600141061e-02
9.180000000000000000e+02 4.987192009956364913e-01
9.190000000000000000e+02 1.652805323376859592e+00
9.200000000000000000e+02 1.720426360016630518e+00
9.210000000000000000e+02 2.005239010578624137e-01
9.220000000000000000e+02 4.508043976353278692e-01
9.230000000000000000e+02 6.537430466611368063e-01
9.240000000000000000e+02 3.844611035055047199e-01
9.250000000000000000e+02 8.399453781372729910e-01
9.260000000000000000e+02 7.739938842803943952e-01
9.270000000000000000e+02 1.336482065961386301e-01
9.280000000000000000e+02 2.981518066791129518e-01
9.290000000000000000e+02 3.044381250777860037e-01
9.300000000000000000e+02 3.524000746733018663e-01
9.310000000000000000e+02 1.954810740286280768e-01
9.320000000000000000e+02 6.600838158058449645e-01
9.330000000000000000e+02 2.226597298278182591e-01
9.340000000000000000e+02 6.409564446287462358e-01
9.350000000000000000e+02 1.025764397842787723e+00
9.360000000000000000e+02 9.615101736154044731e-01
9.370000000000000000e+02 1.436509569680649356e+00
9.380000000000000000e+02 7.518661918688657186e-01
9.390000000000000000e+02 6.728246278780567469e-01
9.400000000000000000e+02 1.070314305538251132e+00
9.410000000000000000e+02 1.331690779091487364e+00
9.420000000000000000e+02 5.504561236258198598e-01
9.430000000000000000e+02 8.234207523335445034e-01
9.440000000000000000e+02 1.183598254096658309e+00
9.450000000000000000e+02 2.511257050404480662e-01
9.460000000000000000e+02 1.448841438083414701e+00
9.470000000000000000e+02 1.934219513378962585e+00
9.480000000000000000e+02 1.059230629952270686e+00
9.490000000000000000e+02 1.056385979049969448e+00
9.500000000000000000e+02 1.176924461107647257e+00
9.510000000000000000e+02 1.487267988176760758e+00
9.520000000000000000e+02 1.643686579547827709e+00
9.530000000000000000e+02 9.861290620202944890e-01
9.540000000000000000e+02 1.540243046038995756e+00
9.550000000000000000e+02 1.428723639701280357e+00
9.560000000000000000e+02 2.551802852520221432e+00
9.570000000000000000e+02 8.397682413936583545e-01
9.580000000000000000e+02 5.897051400124382337e-01
9.590000000000000000e+02 2.063415902924695455e+00
9.600000000000000000e+02 2.331662361053498334e+00
9.610000000000000000e+02 1.992969272350155308e+00
9.620000000000000000e+02 3.375198178178810515e+00
9.630000000000000000e+02 2.659480965574418487e+00
9.640000000000000000e+02 2.227168038581198939e+00
9.650000000000000000e+02 2.262014365484342981e+00
9.660000000000000000e+02 1.983011006221507166e+00
9.670000000000000000e+02 1.807898632233963854e+00
9.680000000000000000e+02 2.572395220286313400e+00
9.690000000000000000e+02 3.261972656502864609e+00
9.700000000000000000e+02 1.993527001037113555e+00
9.710000000000000000e+02 2.706684879070714533e+00
9.720000000000000000e+02 2.727412489732430334e+00
9.730000000000000000e+02 1.158851265090247162e+00
9.740000000000000000e+02 1.811381737191431807e+00
9.750000000000000000e+02 2.204392085666865508e+00
9.760000000000000000e+02 1.967381308649659877e+00
9.770000000000000000e+02 2.242314438705664603e+00
9.780000000000000000e+02 2.789837608587461659e+00
9.790000000000000000e+02 3.768473844638058790e+00
9.800000000000000000e+02 2.581893751140578175e+00
9.810000000000000000e+02 1.906461833022198071e+00
9.820000000000000000e+02 2.432656304916004597e+00
9.830000000000000000e+02 2.248453306926568640e+00
9.840000000000000000e+02 2.440191518149718686e+00
9.850000000000000000e+02 3.303919292055604640e+00
9.860000000000000000e+02 3.321486557030257636e+00
9.870000000000000000e+02 2.385351981331696791e+00
9.880000000000000000e+02 1.292571072599050686e+00
9.890000000000000000e+02 2.012767576316878415e+00
9.900000000000000000e+02 2.020446624974070460e+00
9.910000000000000000e+02 1.899368761667703742e+00
9.920000000000000000e+02 2.759531618830399768e+00
9.930000000000000000e+02 2.108580980709347408e+00
9.940000000000000000e+02 1.095637598423597314e+00
9.950000000000000000e+02 2.317930297863505906e+00
9.960000000000000000e+02 1.741320457996237803e+00
9.970000000000000000e+02 7.447919452395701523e-01
9.980000000000000000e+02 6.410491161584747077e-01
9.990000000000000000e+02 6.243594889027253014e-01
1.000000000000000000e+03 1.927644003736044720e+00
1.001000000000000000e+03 1.875754322981346256e+00
1.002000000000000000e+03 1.930476371369362010e+00
1.003000000000000000e+03 2.267100352697126731e+00
1.004000000000000000e+03 8.327725995850461249e-01
1.005000000000000000e+03 2.045932213250524878e+00
1.006000000000000000e+03 1.575644730290481466e+00
1.007000000000000000e+03 1.007090663900399141e+00
1.008000000000000000e+03 1.895490082987497105e-01
1.009000000000000000e+03 1.772867482401685235e+00
1.010000000000000000e+03 3.578562908713690760e+00
1.011000000000000000e+03 3.083337983402441917e+00
1.012000000000000000e+03 1.917317429460582812e+00
1.013000000000000000e+03 2.515103080912866051e+00
1.014000000000000000e+03 2.392512626556000832e+00
1.015000000000000000e+03 1.836923709543566652e+00
1.016000000000000000e+03 3.148495912863124691e+00
1.017000000000000000e+03 1.913469020746916271e+00
1.018000000000000000e+03 1.659061462655585739e+00
1.019000000000000000e+03 3.796727116181977113e-01
1.020000000000000000e+03 2.352178672199494169e-01
1.021000000000000000e+03 2.298992433610023589e+00
1.022000000000000000e+03 3.631545327800836720e+00
1.023000000000000000e+03 1.550896207468807075e+00
1.024000000000000000e+03 5.148399243152912419e-02
1.025000000000000000e+03 5.239856016596953214e-01
1.026000000000000000e+03 1.825712778008322212e+00
1.027000000000000000e+03 8.052377116180311489e-01
1.028000000000000000e+03 3.876334128630627984e-01
1.029000000000000000e+03 5.209329439833858544e-01
1.030000000000000000e+03 2.017621294605905113e+00
1.031000000000000000e+03 2.304480721991727155e+00
1.032000000000000000e+03 6.767671742739099772e-01
1.033000000000000000e+03 2.056559751036696193e-02
1.034000000000000000e+03 1.059114232365141905e+00
1.035000000000000000e+03 4.790240041494178702e-01
1.036000000000000000e+03 1.180611896369316849e-01
1.037000000000000000e+03 1.980044695020928502e+00
1.038000000000000000e+03 2.839356637681342388e+00
1.039000000000000000e+03 1.260493701244830733e+00
1.040000000000000000e+03 1.068111535269745671e+00
1.041000000000000000e+03 1.838656099585057602e+00
1.042000000000000000e+03 1.436565693581811409e+00
1.043000000000000000e+03 8.420719460580818883e-01
1.044000000000000000e+03 4.224806701244651075e-01
1.045000000000000000e+03 1.652139778008139270e+00
1.046000000000000000e+03 1.587235564315397252e+00
1.047000000000000000e+03 2.240127419087244665e+00
1.048000000000000000e+03 2.576909867220301464e+00
1.049000000000000000e+03 5.012241410787698914e-01
1.050000000000000000e+03 1.778839734439834119e+00
1.051000000000000000e+03 1.733052738589226260e+00
1.052000000000000000e+03 2.330240290456431662e+00
1.053000000000000000e+03 1.694941902489633279e+00
1.054000000000000000e+03 2.129708634854818872e+00
1.055000000000000000e+03 2.243642713692986845e+00
1.056000000000000000e+03 2.681976340248910962e+00
1.057000000000000000e+03 2.547164182572575708e+00
1.058000000000000000e+03 1.548422705394178367e+00
1.059000000000000000e+03 1.863568207468887739e+00
1.060000000000000000e+03 1.502214209543568435e+00
1.061000000000000000e+03 4.087165072614071804e+00
1.062000000000000000e+03 2.855028417012560826e+00
1.063000000000000000e+03 2.284739589211624011e+00
1.064000000000000000e+03 1.892811846473013260e+00
1.065000000000000000e+03 1.987171170124490294e+00
1.066000000000000000e+03 1.165005207469032245e+00
1.067000000000000000e+03 2.206872422360258712e-01
1.068000000000000000e+03 3.674379937760353099e-01
1.069000000000000000e+03 1.885205657676235713e+00
1.070000000000000000e+03 2.399267219917017968e+00
1.071000000000000000e+03 1.278622865424380972e+00
1.072000000000000000e+03 1.824449360995781033e+00
1.073000000000000000e+03 2.333336726141062911e+00
1.074000000000000000e+03 3.003380950207475752e+00
1.075000000000000000e+03 2.343469494823914978e+00
1.076000000000000000e+03 6.803523132780920912e-01
1.077000000000000000e+03 5.484485165974778420e-01
1.078000000000000000e+03 1.996983630705385648e+00
1.079000000000000000e+03 1.671653464730291638e+00
1.080000000000000000e+03 1.896787066390032139e+00
1.081000000000000000e+03 1.983427900414933331e+00
1.082000000000000000e+03 1.233671360995794997e+00
1.083000000000000000e+03 1.422308356846420319e+00
1.084000000000000000e+03 1.423727981366461837e+00
1.085000000000000000e+03 5.111207074688026708e-01
1.086000000000000000e+03 4.644234583754417445e-01
1.087000000000000000e+03 1.647760157676303461e+00
1.088000000000000000e+03 1.855703340248927802e+00
1.089000000000000000e+03 9.980530871368817891e-01
1.090000000000000000e+03 7.611806804978415997e-01
1.091000000000000000e+03 1.997611331950206237e+00
1.092000000000000000e+03 7.220880954356150294e-01
1.093000000000000000e+03 1.151528215767526619e+00
1.094000000000000000e+03 1.153482711618284862e+00
1.095000000000000000e+03 1.451952197095474961e+00
1.096000000000000000e+03 1.568998209109786712e+00
1.097000000000000000e+03 1.194471298755134470e+00
1.098000000000000000e+03 1.917856858921159757e+00
1.099000000000000000e+03 8.450564149377044476e-01
1.100000000000000000e+03 1.029597622406595248e+00
1.101000000000000000e+03 2.525353628630683911e+00
1.102000000000000000e+03 2.610944464730263537e+00
1.103000000000000000e+03 1.828411358921067098e+00
1.104000000000000000e+03 3.559690559006531974e-01
1.105000000000000000e+03 1.043438448132837593e+00
1.106000000000000000e+03 2.390363365145178776e+00
1.107000000000000000e+03 1.914466597510400714e+00
1.108000000000000000e+03 1.741023813278008259e+00
1.109000000000000000e+03 1.854220614107897402e+00
1.110000000000000000e+03 1.895982929460588107e+00
1.111000000000000000e+03 9.174365601660018354e-01
1.112000000000000000e+03 1.690983201244828260e+00
1.113000000000000000e+03 1.548145109730786784e+00
1.114000000000000000e+03 9.716671701245164217e-01
1.115000000000000000e+03 2.083791199170113906e+00
1.116000000000000000e+03 1.839730120331831476e+00
1.117000000000000000e+03 8.067548257260084288e-01
1.118000000000000000e+03 1.352728124481366700e+00
1.119000000000000000e+03 7.709109585062778880e-01
1.120000000000000000e+03 2.188589091286274879e+00
1.121000000000000000e+03 9.266584896266165661e-01
1.122000000000000000e+03 4.819801078838175656e-01
1.123000000000000000e+03 7.827143236514872982e-01
1.124000000000000000e+03 1.756046954356815792e+00
1.125000000000000000e+03 1.724930142857160176e+00
1.126000000000000000e+03 1.487267383817433508e+00
1.127000000000000000e+03 1.181497593360927301e+00
1.128000000000000000e+03 7.586997385892133572e-01
1.129000000000000000e+03 8.728164886128367828e-01
1.130000000000000000e+03 2.029347261410594794e-01
1.131000000000000000e+03 5.685971784229869319e-02
1.132000000000000000e+03 2.668203443983580558e-01
1.133000000000000000e+03 8.292227722567639958e-01
1.134000000000000000e+03 2.842591556016471621e-01
1.135000000000000000e+03 8.713856016599182130e-02
1.136000000000000000e+03 2.097266659751071405e-01
1.137000000000000000e+03 7.010571784232871861e-01
1.138000000000000000e+03 2.172807195020573179e+00
1.139000000000000000e+03 2.871709962655611736e+00
1.140000000000000000e+03 7.943156887965809876e-01
1.141000000000000000e+03 7.469623001659987660e-02
1.142000000000000000e+03 1.497434678423241294e+00
1.143000000000000000e+03 1.049724634854754646e+00
1.144000000000000000e+03 5.747950497925187197e-01
1.145000000000000000e+03 6.140530871369358490e-01
1.146000000000000000e+03 2.132354771784197855e-01
1.147000000000000000e+03 3.099281327800980645e-01
1.148000000000000000e+03 2.576536680497972798e-01
1.149000000000000000e+03 7.731962987551707078e-01
1.150000000000000000e+03 9.357931203319489466e-01
1.151000000000000000e+03 6.322348319501430725e-01
1.152000000000000000e+03 3.778970248962438827e-01
1.153000000000000000e+03 1.680848491701242953e+00
1.154000000000000000e+03 2.764082173911879270e-01
1.155000000000000000e+03 1.003817647302800209e+00
1.156000000000000000e+03 1.260608672199156344e-01
1.157000000000000000e+03 7.066312987552224589e-01
1.158000000000000000e+03 9.946286521738909592e-01
1.159000000000000000e+03 8.934513402489744349e-01
1.160000000000000000e+03 1.027536433609950395e+00
1.161000000000000000e+03 7.081227634855038477e-01
1.162000000000000000e+03 1.192080768115891587e+00
1.163000000000000000e+03 1.460536692946060811e+00
1.164000000000000000e+03 1.041643385892115692e+00
1.165000000000000000e+03 1.580212676348517142e+00
1.166000000000000000e+03 1.370756381742754604e+00
1.167000000000000000e+03 1.897781730290474034e+00
1.168000000000000000e+03 3.767560062238579643e-01
1.169000000000000000e+03 6.978821514521855729e-01
1.170000000000000000e+03 7.157200767635076843e-01
1.171000000000000000e+03 1.188954497842714952e-01
1.172000000000000000e+03 1.921471908713300314e+00
1.173000000000000000e+03 3.569365224066485709e+00
1.174000000000000000e+03 1.550223999999998492e+00
1.175000000000000000e+03 1.902650728215766751e+00
1.176000000000000000e+03 1.746302180497948831e+00
1.177000000000000000e+03 1.339897136929461441e+00
1.178000000000000000e+03 1.493275060165992763e+00
1.179000000000000000e+03 1.566362315352693324e+00
1.180000000000000000e+03 2.108782286307032461e+00
1.181000000000000000e+03 2.912175004149405666e+00
1.182000000000000000e+03 2.527950975103637976e+00
1.183000000000000000e+03 1.542650568464747796e+00
1.184000000000000000e+03 1.251550101659748782e+00
1.185000000000000000e+03 1.213369686722009178e+00
1.186000000000000000e+03 1.883811060165806239e+00
1.187000000000000000e+03 3.157306217391318892e+00
1.188000000000000000e+03 2.004555547717795427e+00
1.189000000000000000e+03 1.814677846473033318e+00
1.190000000000000000e+03 4.057603568465262267e-01
1.191000000000000000e+03 4.918709192546558140e-01
1.192000000000000000e+03 3.904127430063074611e-01
1.193000000000000000e+03 6.066856950207903942e-01
1.194000000000000000e+03 9.093306742738433979e-01
1.195000000000000000e+03 1.561989485477195849e+00
1.196000000000000000e+03 1.812064991701217043e+00
1.197000000000000000e+03 1.678827651452354797e+00
1.198000000000000000e+03 5.160944522821598879e-01
1.199000000000000000e+03 9.118940456431996466e-01
1.200000000000000000e+03 1.543926209543515560e+00
1.201000000000000000e+03 2.281910116182571446e+00
1.202000000000000000e+03 1.824441446058054028e+00
1.203000000000000000e+03 1.386219697095437242e+00
1.204000000000000000e+03 2.008786244813254740e+00
1.205000000000000000e+03 5.705502987550895577e-01
1.206000000000000000e+03 7.427634979254077452e-01
1.207000000000000000e+03 1.939655410788346579e+00
1.208000000000000000e+03 1.520473089211610951e+00
1.209000000000000000e+03 9.549931286306828637e-01
1.210000000000000000e+03 8.167736431536737340e-01
1.211000000000000000e+03 1.695915082987400069e-01
1.212000000000000000e+03 1.344160975103819045e+00
1.213000000000000000e+03 2.731308709543581958e+00
1.214000000000000000e+03 2.236501070539481884e+00
1.215000000000000000e+03 1.050659721991700657e+00
1.216000000000000000e+03 2.423829844720668092e+00
1.217000000000000000e+03 2.920058244813344306e+00
1.218000000000000000e+03 1.831528713692972099e+00
1.219000000000000000e+03 2.552461120331159794e-01
1.220000000000000000e+03 8.239979999998979787e-01
1.221000000000000000e+03 1.885551456431581396e+00
1.222000000000000000e+03 1.204579543568327082e-01
1.223000000000000000e+03 8.100546307054303785e-01
1.224000000000000000e+03 1.248411045548621923e+00
1.225000000000000000e+03 1.895719043568452555e+00
1.226000000000000000e+03 3.871750269709557379e+00
1.227000000000000000e+03 2.416772659750976437e+00
1.228000000000000000e+03 1.859958184647325874e+00
1.229000000000000000e+03 5.641614024896137725e-01
1.230000000000000000e+03 3.034532987551289973e-01
1.231000000000000000e+03 1.305288020746779853e+00
1.232000000000000000e+03 2.709330049792511463e+00
1.233000000000000000e+03 3.306261939834020946e+00
1.234000000000000000e+03 2.673770948132834668e+00
1.235000000000000000e+03 1.844342234439860340e+00
1.236000000000000000e+03 1.875115643153543843e+00
1.237000000000000000e+03 3.457910211618058227e+00
1.238000000000000000e+03 1.043802817427447849e+00
1.239000000000000000e+03 6.616598713692948275e-01
1.240000000000000000e+03 1.056058975103789432e+00
1.241000000000000000e+03 2.213967979253045559e+00
1.242000000000000000e+03 1.740262896265587944e+00
1.243000000000000000e+03 1.019760580912855374e+00
1.244000000000000000e+03 1.178462149377641710e+00
1.245000000000000000e+03 1.847450863353995443e+00
1.246000000000000000e+03 1.608735970954335626e+00
1.247000000000000000e+03 8.522382033195009532e-01
1.248000000000000000e+03 1.565543302904506939e+00
1.249000000000000000e+03 1.819867683229818178e+00
1.250000000000000000e+03 2.446351576764381197e-01
1.251000000000000000e+03 1.778379068464701396e+00
1.252000000000000000e+03 1.261478703319494521e+00
1.253000000000000000e+03 1.855786952380957588e+00
1.254000000000000000e+03 1.804945618257213891e+00
1.255000000000000000e+03 9.717604813278635234e-01
1.256000000000000000e+03 3.573250456431575905e-01
1.257000000000000000e+03 9.293397634855324885e-01
1.258000000000000000e+03 7.265076887966975816e-01
1.259000000000000000e+03 7.192910186721426236e-01
1.260000000000000000e+03 1.774476724066403888e+00
1.261000000000000000e+03 2.091854338174266026e+00
1.262000000000000000e+03 1.876727560166004283e+00
1.263000000000000000e+03 1.073860000000000037e+00
1.264000000000000000e+03 1.026419887966926181e+00
1.265000000000000000e+03 2.715546354037338350e+00
1.266000000000000000e+03 1.611922410788379834e+00
1.267000000000000000e+03 2.403826153527001797e+00
1.268000000000000000e+03 2.203337941908703801e+00
1.269000000000000000e+03 1.503559603734482275e+00
1.270000000000000000e+03 1.115677041493772226e+00
1.271000000000000000e+03 4.485258215767004564e-01
1.272000000000000000e+03 1.213263244813065800e+00
1.273000000000000000e+03 2.375110564315341843e+00
1.274000000000000000e+03 1.510949455486452875e+00
1.275000000000000000e+03 1.046515966804890674e+00
1.276000000000000000e+03 2.952387105809042733e+00
1.277000000000000000e+03 3.041775136929445900e+00
1.278000000000000000e+03 1.112025464730307167e+00
1.279000000000000000e+03 1.328587547717918760e+00
1.280000000000000000e+03 2.578953443983451610e-01
1.281000000000000000e+03 5.888301203319813437e-01
1.282000000000000000e+03 1.367377981366479700e+00
1.283000000000000000e+03 3.084508956431497584e+00
1.284000000000000000e+03 8.511559724708770425e-01
1.285000000000000000e+03 5.737927468880925641e-01
1.286000000000000000e+03 9.021637344398835134e-01
1.287000000000000000e+03 1.086108742738588262e+00
1.288000000000000000e+03 2.683260016597635023e+00
1.289000000000000000e+03 2.951311809128740915e+00
1.290000000000000000e+03 1.040984710144942316e+00
1.291000000000000000e+03 1.044850105809174368e+00
1.292000000000000000e+03 1.960486879668069227e+00
1.293000000000000000e+03 1.712045952282305272e+00
1.294000000000000000e+03 2.299065872919225928e-01
1.295000000000000000e+03 2.438092564315443411e+00
1.296000000000000000e+03 1.725284427386041708e+00
1.297000000000000000e+03 2.395880202240927570e-01
1.298000000000000000e+03 4.769410539419415285e-01
1.299000000000000000e+03 2.379129541493692379e+00
1.300000000000000000e+03 1.820275271784363769e+00
1.301000000000000000e+03 3.075598609958475338e-01
1.302000000000000000e+03 2.469815974206393538e-02
1.303000000000000000e+03 5.057590062134131870e-03
1.304000000000000000e+03 0.000000000000000000e+00
1.305000000000000000e+03 0.000000000000000000e+00
1.306000000000000000e+03 0.000000000000000000e+00
1.307000000000000000e+03 0.000000000000000000e+00
1.308000000000000000e+03 0.000000000000000000e+00
1.309000000000000000e+03 0.000000000000000000e+00
1.310000000000000000e+03 0.000000000000000000e+00
1.311000000000000000e+03 0.000000000000000000e+00
1.312000000000000000e+03 0.000000000000000000e+00
1.313000000000000000e+03 0.000000000000000000e+00
1.314000000000000000e+03 0.000000000000000000e+00
1.315000000000000000e+03 0.000000000000000000e+00
1.316000000000000000e+03 0.000000000000000000e+00
1.317000000000000000e+03 0.000000000000000000e+00
1.318000000000000000e+03 0.000000000000000000e+00
1.319000000000000000e+03 0.000000000000000000e+00
1.320000000000000000e+03 0.000000000000000000e+00
1.321000000000000000e+03 0.000000000000000000e+00
1.322000000000000000e+03 0.000000000000000000e+00
1.323000000000000000e+03 0.000000000000000000e+00
1.324000000000000000e+03 0.000000000000000000e+00
1.325000000000000000e+03 0.000000000000000000e+00
1.326000000000000000e+03 0.000000000000000000e+00
1.327000000000000000e+03 0.000000000000000000e+00
1.328000000000000000e+03 0.000000000000000000e+00
1.329000000000000000e+03 0.000000000000000000e+00
1.330000000000000000e+03 0.000000000000000000e+00
1.331000000000000000e+03 0.000000000000000000e+00
1.332000000000000000e+03 0.000000000000000000e+00
1.333000000000000000e+03 0.000000000000000000e+00
1.334000000000000000e+03 0.000000000000000000e+00
1.335000000000000000e+03 0.000000000000000000e+00
1.336000000000000000e+03 0.000000000000000000e+00
1.337000000000000000e+03 0.000000000000000000e+00
1.338000000000000000e+03 0.000000000000000000e+00
1.339000000000000000e+03 0.000000000000000000e+00
1.340000000000000000e+03 0.000000000000000000e+00
1.341000000000000000e+03 0.000000000000000000e+00
1.342000000000000000e+03 0.000000000000000000e+00
1.343000000000000000e+03 0.000000000000000000e+00
1.344000000000000000e+03 0.000000000000000000e+00
1.345000000000000000e+03 0.000000000000000000e+00
1.346000000000000000e+03 0.000000000000000000e+00
1.347000000000000000e+03 0.000000000000000000e+00
1.348000000000000000e+03 0.000000000000000000e+00
1.349000000000000000e+03 0.000000000000000000e+00
1.350000000000000000e+03 0.000000000000000000e+00
1.351000000000000000e+03 0.000000000000000000e+00
1.352000000000000000e+03 0.000000000000000000e+00
1.353000000000000000e+03 0.000000000000000000e+00
1.354000000000000000e+03 0.000000000000000000e+00
1.355000000000000000e+03 0.000000000000000000e+00
1.356000000000000000e+03 0.000000000000000000e+00
1.357000000000000000e+03 0.000000000000000000e+00
1.358000000000000000e+03 0.000000000000000000e+00
1.359000000000000000e+03 0.000000000000000000e+00
1.360000000000000000e+03 0.000000000000000000e+00
1.361000000000000000e+03 0.000000000000000000e+00
1.362000000000000000e+03 0.000000000000000000e+00
1.363000000000000000e+03 0.000000000000000000e+00
1.364000000000000000e+03 0.000000000000000000e+00
1.365000000000000000e+03 0.000000000000000000e+00
1.366000000000000000e+03 0.000000000000000000e+00
1.367000000000000000e+03 0.000000000000000000e+00
1.368000000000000000e+03 0.000000000000000000e+00
1.369000000000000000e+03 0.000000000000000000e+00
1.370000000000000000e+03 0.000000000000000000e+00
1.371000000000000000e+03 0.000000000000000000e+00
1.372000000000000000e+03 0.000000000000000000e+00
1.373000000000000000e+03 0.000000000000000000e+00
1.374000000000000000e+03 0.000000000000000000e+00
1.375000000000000000e+03 0.000000000000000000e+00
1.376000000000000000e+03 0.000000000000000000e+00
1.377000000000000000e+03 0.000000000000000000e+00
1.378000000000000000e+03 0.000000000000000000e+00
1.379000000000000000e+03 0.000000000000000000e+00
1.380000000000000000e+03 0.000000000000000000e+00
1.381000000000000000e+03 0.000000000000000000e+00
1.382000000000000000e+03 0.000000000000000000e+00
1.383000000000000000e+03 0.000000000000000000e+00
1.384000000000000000e+03 0.000000000000000000e+00
1.385000000000000000e+03 0.000000000000000000e+00
1.386000000000000000e+03 0.000000000000000000e+00
1.387000000000000000e+03 0.000000000000000000e+00
1.388000000000000000e+03 0.000000000000000000e+00
1.389000000000000000e+03 0.000000000000000000e+00
1.390000000000000000e+03 0.000000000000000000e+00
1.391000000000000000e+03 0.000000000000000000e+00
1.392000000000000000e+03 0.000000000000000000e+00
1.393000000000000000e+03 0.000000000000000000e+00
1.394000000000000000e+03 0.000000000000000000e+00
1.395000000000000000e+03 0.000000000000000000e+00
1.396000000000000000e+03 0.000000000000000000e+00
1.397000000000000000e+03 0.000000000000000000e+00
1.398000000000000000e+03 0.000000000000000000e+00
1.399000000000000000e+03 0.000000000000000000e+00
1.400000000000000000e+03 0.000000000000000000e+00
1.401000000000000000e+03 0.000000000000000000e+00
1.402000000000000000e+03 0.000000000000000000e+00
1.403000000000000000e+03 0.000000000000000000e+00
1.404000000000000000e+03 0.000000000000000000e+00
1.405000000000000000e+03 0.000000000000000000e+00
1.406000000000000000e+03 0.000000000000000000e+00
1.407000000000000000e+03 0.000000000000000000e+00
1.408000000000000000e+03 0.000000000000000000e+00
1.409000000000000000e+03 0.000000000000000000e+00
1.410000000000000000e+03 0.000000000000000000e+00
1.411000000000000000e+03 0.000000000000000000e+00
1.412000000000000000e+03 0.000000000000000000e+00
1.413000000000000000e+03 0.000000000000000000e+00
1.414000000000000000e+03 0.000000000000000000e+00
1.415000000000000000e+03 0.000000000000000000e+00
1.416000000000000000e+03 0.000000000000000000e+00
1.417000000000000000e+03 0.000000000000000000e+00
1.418000000000000000e+03 0.000000000000000000e+00
1.419000000000000000e+03 0.000000000000000000e+00
1.420000000000000000e+03 0.000000000000000000e+00
1.421000000000000000e+03 0.000000000000000000e+00
1.422000000000000000e+03 0.000000000000000000e+00
1.423000000000000000e+03 0.000000000000000000e+00
1.424000000000000000e+03 0.000000000000000000e+00
1.425000000000000000e+03 0.000000000000000000e+00
1.426000000000000000e+03 0.000000000000000000e+00
1.427000000000000000e+03 0.000000000000000000e+00
1.428000000000000000e+03 0.000000000000000000e+00
1.429000000000000000e+03 0.000000000000000000e+00
1.430000000000000000e+03 0.000000000000000000e+00
1.431000000000000000e+03 0.000000000000000000e+00
1.432000000000000000e+03 0.000000000000000000e+00
1.433000000000000000e+03 0.000000000000000000e+00
1.434000000000000000e+03 0.000000000000000000e+00
1.435000000000000000e+03 0.000000000000000000e+00
1.436000000000000000e+03 0.000000000000000000e+00
1.437000000000000000e+03 0.000000000000000000e+00
1.438000000000000000e+03 0.000000000000000000e+00
1.439000000000000000e+03 0.000000000000000000e+00
1.440000000000000000e+03 0.000000000000000000e+00
1.441000000000000000e+03 0.000000000000000000e+00
1.442000000000000000e+03 0.000000000000000000e+00
1.443000000000000000e+03 0.000000000000000000e+00
1.444000000000000000e+03 0.000000000000000000e+00
1.445000000000000000e+03 0.000000000000000000e+00
1.446000000000000000e+03 0.000000000000000000e+00
1.447000000000000000e+03 0.000000000000000000e+00
1.448000000000000000e+03 0.000000000000000000e+00
1.449000000000000000e+03 0.000000000000000000e+00
1.450000000000000000e+03 0.000000000000000000e+00
1.451000000000000000e+03 0.000000000000000000e+00
1.452000000000000000e+03 0.000000000000000000e+00
1.453000000000000000e+03 0.000000000000000000e+00
1.454000000000000000e+03 0.000000000000000000e+00
1.455000000000000000e+03 0.000000000000000000e+00
1.456000000000000000e+03 0.000000000000000000e+00
1.457000000000000000e+03 0.000000000000000000e+00
1.458000000000000000e+03 0.000000000000000000e+00
1.459000000000000000e+03 0.000000000000000000e+00
1.460000000000000000e+03 0.000000000000000000e+00
1.461000000000000000e+03 0.000000000000000000e+00
1.462000000000000000e+03 0.000000000000000000e+00
1.463000000000000000e+03 0.000000000000000000e+00
1.464000000000000000e+03 0.000000000000000000e+00
1.465000000000000000e+03 0.000000000000000000e+00
1.466000000000000000e+03 0.000000000000000000e+00
1.467000000000000000e+03 0.000000000000000000e+00
1.468000000000000000e+03 0.000000000000000000e+00
1.469000000000000000e+03 0.000000000000000000e+00
1.470000000000000000e+03 0.000000000000000000e+00
1.471000000000000000e+03 0.000000000000000000e+00
1.472000000000000000e+03 0.000000000000000000e+00
1.473000000000000000e+03 0.000000000000000000e+00
1.474000000000000000e+03 0.000000000000000000e+00
1.475000000000000000e+03 0.000000000000000000e+00
1.476000000000000000e+03 0.000000000000000000e+00
1.477000000000000000e+03 0.000000000000000000e+00
1.478000000000000000e+03 0.000000000000000000e+00
1.479000000000000000e+03 0.000000000000000000e+00
1.480000000000000000e+03 0.000000000000000000e+00
1.481000000000000000e+03 0.000000000000000000e+00
1.482000000000000000e+03 0.000000000000000000e+00
1.483000000000000000e+03 0.000000000000000000e+00
1.484000000000000000e+03 0.000000000000000000e+00
1.485000000000000000e+03 0.000000000000000000e+00
1.486000000000000000e+03 0.000000000000000000e+00
1.487000000000000000e+03 0.000000000000000000e+00
1.488000000000000000e+03 0.000000000000000000e+00
1.489000000000000000e+03 0.000000000000000000e+00
1.490000000000000000e+03 0.000000000000000000e+00
1.491000000000000000e+03 0.000000000000000000e+00
1.492000000000000000e+03 0.000000000000000000e+00
1.493000000000000000e+03 0.000000000000000000e+00
1.494000000000000000e+03 0.000000000000000000e+00
1.495000000000000000e+03 0.000000000000000000e+00
1.496000000000000000e+03 0.000000000000000000e+00
1.497000000000000000e+03 0.000000000000000000e+00
1.498000000000000000e+03 0.000000000000000000e+00
1.499000000000000000e+03 0.000000000000000000e+00
1.500000000000000000e+03 0.000000000000000000e+00
