1.010000000000000000e+02 0.000000000000000000e+00
1.020000000000000000e+02 0.000000000000000000e+00
1.030000000000000000e+02 0.000000000000000000e+00
1.040000000000000000e+02 0.000000000000000000e+00
1.050000000000000000e+02 0.000000000000000000e+00
1.060000000000000000e+02 0.000000000000000000e+00
1.070000000000000000e+02 0.000000000000000000e+00
1.080000000000000000e+02 0.000000000000000000e+00
1.090000000000000000e+02 0.000000000000000000e+00
1.100000000000000000e+02 0.000000000000000000e+00
1.110000000000000000e+02 0.000000000000000000e+00
1.120000000000000000e+02 0.000000000000000000e+00
1.130000000000000000e+02 0.000000000000000000e+00
1.140000000000000000e+02 0.000000000000000000e+00
1.150000000000000000e+02 0.000000000000000000e+00
1.160000000000000000e+02 0.000000000000000000e+00
1.170000000000000000e+02 0.000000000000000000e+00
1.180000000000000000e+02 0.000000000000000000e+00
1.190000000000000000e+02 0.000000000000000000e+00
1.200000000000000000e+02 0.000000000000000000e+00
1.210000000000000000e+02 0.000000000000000000e+00
1.220000000000000000e+02 0.000000000000000000e+00
1.230000000000000000e+02 0.000000000000000000e+00
1.240000000000000000e+02 0.000000000000000000e+00
1.250000000000000000e+02 0.000000000000000000e+00
1.260000000000000000e+02 0.000000000000000000e+00
1.270000000000000000e+02 0.000000000000000000e+00
1.280000000000000000e+02 0.000000000000000000e+00
1.290000000000000000e+02 0.000000000000000000e+00
1.300000000000000000e+02 0.000000000000000000e+00
1.310000000000000000e+02 0.000000000000000000e+00
1.320000000000000000e+02 0.000000000000000000e+00
1.330000000000000000e+02 0.000000000000000000e+00
1.340000000000000000e+02 0.000000000000000000e+00
1.350000000000000000e+02 0.000000000000000000e+00
1.360000000000000000e+02 0.000000000000000000e+00
1.370000000000000000e+02 0.000000000000000000e+00
1.380000000000000000e+02 0.000000000000000000e+00
1.390000000000000000e+02 0.000000000000000000e+00
1.400000000000000000e+02 0.000000000000000000e+00
1.410000000000000000e+02 6.729468879668139003e+00
1.420000000000000000e+02 4.990248962655638998e-01
1.430000000000000000e+02 3.545826970954387036e+01
1.440000000000000000e+02 3.566674481327789437e+01
1.450000000000000000e+02 1.065723858921149336e+01
1.460000000000000000e+02 3.263136929460596303e+00
1.470000000000000000e+02 1.414740663900418660e+01
1.480000000000000000e+02 1.569733195020746130e+01
1.490000000000000000e+02 1.997568049792539924e+01
1.500000000000000000e+02 2.913202489626559100e+01
1.510000000000000000e+02 2.841225726141073338e+01
1.520000000000000000e+02 9.462114107883722980e+00
1.530000000000000000e+02 2.549375311203356631e+01
1.540000000000000000e+02 5.068671369294608553e+01
1.550000000000000000e+02 4.296529192546580589e+01
1.560000000000000000e+02 5.361275518672209017e+01
1.570000000000000000e+02 7.630453941908739068e+01
1.580000000000000000e+02 7.602894190871330693e+01
1.590000000000000000e+02 4.987933954451376906e+01
1.600000000000000000e+02 8.536432572614133107e+01
1.610000000000000000e+02 1.080257033195021705e+02
1.620000000000000000e+02 1.096530352697094344e+02
1.630000000000000000e+02 1.087309316770188303e+02
1.640000000000000000e+02 1.314883651452283857e+02
1.650000000000000000e+02 1.375500622406638911e+02
1.660000000000000000e+02 1.444250290456432992e+02
1.670000000000000000e+02 1.520630456431535151e+02
1.680000000000000000e+02 1.478219439834024627e+02
1.690000000000000000e+02 1.676626535269712122e+02
1.700000000000000000e+02 1.609702655601656716e+02
1.710000000000000000e+02 1.377537199170122335e+02
1.720000000000000000e+02 1.366811410788380954e+02
1.730000000000000000e+02 1.250029792531118318e+02
1.740000000000000000e+02 1.064380207468877302e+02
1.750000000000000000e+02 9.595166390041491411e+01
1.760000000000000000e+02 1.001369813278009104e+02
1.770000000000000000e+02 1.028153298755186000e+02
1.780000000000000000e+02 9.217699999999999250e+01
1.790000000000000000e+02 9.486175311203299998e+01
1.800000000000000000e+02 9.894343983402499987e+01
1.810000000000000000e+02 8.190961410788358421e+01
1.820000000000000000e+02 7.571772199170126783e+01
1.830000000000000000e+02 6.731429045643167797e+01
1.840000000000000000e+02 5.719267080745332521e+01
1.850000000000000000e+02 5.619170746887959211e+01
1.860000000000000000e+02 6.312793153526959600e+01
1.870000000000000000e+02 7.270624273858912545e+01
1.880000000000000000e+02 6.918895435684667916e+01
1.890000000000000000e+02 5.060095020746896921e+01
1.900000000000000000e+02 5.110012448132774665e+01
1.910000000000000000e+02 5.476888381742736556e+01
1.920000000000000000e+02 4.845407246376828425e+01
1.930000000000000000e+02 4.008468049792526955e+01
1.940000000000000000e+02 5.124747925311196894e+01
1.950000000000000000e+02 3.482593360995876708e+01
1.960000000000000000e+02 2.483278008298754713e+01
1.970000000000000000e+02 2.393992132505182724e+01
1.980000000000000000e+02 9.214979253112172586e+00
1.990000000000000000e+02 3.657331950207416860e+00
2.000000000000000000e+02 1.700499585921308920e+01
2.010000000000000000e+02 3.181642738589209785e+01
2.020000000000000000e+02 2.705973651452299578e+01
2.030000000000000000e+02 2.934381742738640497e+00
2.040000000000000000e+02 1.508382987551847521e+01
2.050000000000000000e+02 3.489176763485471611e+01
2.060000000000000000e+02 2.912627385892131215e+01
2.070000000000000000e+02 4.850684647302971442e+00
2.080000000000000000e+02 5.337464730290469639e+00
2.090000000000000000e+02 1.547087370600399758e+01
2.100000000000000000e+02 3.081479668049784593e+01
2.110000000000000000e+02 3.357965145228213544e+01
2.120000000000000000e+02 4.146137966804980124e+01
2.130000000000000000e+02 3.121242323651465966e+01
2.140000000000000000e+02 1.918375103734438269e+01
2.150000000000000000e+02 2.209578008298753815e+01
2.160000000000000000e+02 2.560124896265558903e+01
2.170000000000000000e+02 3.085569772256727461e+01
2.180000000000000000e+02 2.367164522821588335e+01
2.190000000000000000e+02 4.444973029045707236e+00
2.200000000000000000e+02 7.317757261410770653e+00
2.210000000000000000e+02 6.470627329192561561e+00
2.220000000000000000e+02 1.377748962655594411e+01
2.230000000000000000e+02 2.039429045643153771e+01
2.240000000000000000e+02 1.103291701244814504e+01
2.250000000000000000e+02 1.279150207468879685e+01
2.260000000000000000e+02 2.440792323651447759e+01
2.270000000000000000e+02 3.140737759336100865e+01
2.280000000000000000e+02 3.120920539419086381e+01
2.290000000000000000e+02 4.594739337474118912e+01
2.300000000000000000e+02 6.205690041493772213e+01
2.310000000000000000e+02 7.047078008298755947e+01
2.320000000000000000e+02 7.463672614107883874e+01
2.330000000000000000e+02 8.390931950207469470e+01
2.340000000000000000e+02 9.051631884057971433e+01
2.350000000000000000e+02 7.122680705394192557e+01
2.360000000000000000e+02 7.414146680497928799e+01
2.370000000000000000e+02 1.183670207468880449e+02
2.380000000000000000e+02 1.117746763485477288e+02
2.390000000000000000e+02 1.281024937759336240e+02
2.400000000000000000e+02 1.507920373443983806e+02
2.410000000000000000e+02 1.625581535269709264e+02
2.420000000000000000e+02 1.609940869565217838e+02
2.430000000000000000e+02 1.891568858921162075e+02
2.440000000000000000e+02 2.094342095435684996e+02
2.450000000000000000e+02 2.304572282157677989e+02
2.460000000000000000e+02 2.632956348547717766e+02
2.470000000000000000e+02 2.609214024896265869e+02
2.480000000000000000e+02 2.996159834024898601e+02
2.490000000000000000e+02 3.289218921161825619e+02
2.500000000000000000e+02 3.413463913043478897e+02
2.510000000000000000e+02 3.986435269709545537e+02
2.520000000000000000e+02 4.265496908713693642e+02
2.530000000000000000e+02 4.459064979253113279e+02
2.540000000000000000e+02 4.770456086956525041e+02
2.550000000000000000e+02 5.289162448132782401e+02
2.560000000000000000e+02 5.794026970954358831e+02
2.570000000000000000e+02 6.046468630705392115e+02
2.580000000000000000e+02 6.220027551867218563e+02
2.590000000000000000e+02 6.479335643153523279e+02
2.600000000000000000e+02 6.860059999999996307e+02
2.610000000000000000e+02 7.275600912863066014e+02
2.620000000000000000e+02 7.452212468879667995e+02
2.630000000000000000e+02 7.502242406639004457e+02
2.640000000000000000e+02 7.646356970954357166e+02
2.650000000000000000e+02 7.759445726141079831e+02
2.660000000000000000e+02 7.837014927536231426e+02
2.670000000000000000e+02 7.809751265560167894e+02
2.680000000000000000e+02 7.698902406639003857e+02
2.690000000000000000e+02 7.670215103734441300e+02
2.700000000000000000e+02 7.447377178423238320e+02
2.710000000000000000e+02 7.262643581780539535e+02
2.720000000000000000e+02 7.149657925311203144e+02
2.730000000000000000e+02 7.002746970954357266e+02
2.740000000000000000e+02 6.841462282157676782e+02
2.750000000000000000e+02 7.070440434782613011e+02
2.760000000000000000e+02 7.429828091286308336e+02
2.770000000000000000e+02 7.908601721991705062e+02
2.780000000000000000e+02 8.876221265560177471e+02
2.790000000000000000e+02 1.014559929606622632e+03
2.800000000000000000e+02 1.180209668049789343e+03
2.810000000000000000e+02 1.389195941908710893e+03
2.820000000000000000e+02 1.643380900414935240e+03
2.830000000000000000e+02 1.941856115942024417e+03
2.840000000000000000e+02 2.263331240663900644e+03
2.850000000000000000e+02 2.634611356846472972e+03
2.860000000000000000e+02 3.061578763485477339e+03
2.870000000000000000e+02 3.510663205394190300e+03
2.880000000000000000e+02 3.936579452282158854e+03
2.890000000000000000e+02 4.419995124481331004e+03
2.900000000000000000e+02 4.799708821576766240e+03
2.910000000000000000e+02 4.875223377593360055e+03
2.920000000000000000e+02 4.555025850622412690e+03
2.930000000000000000e+02 3.869914568464740569e+03
2.940000000000000000e+02 3.037900948132788017e+03
2.950000000000000000e+02 2.251289055900629137e+03
2.960000000000000000e+02 1.645216908713689463e+03
2.970000000000000000e+02 1.197008302904562015e+03
2.980000000000000000e+02 8.712608132780067081e+02
2.990000000000000000e+02 6.369872199170114300e+02
3.000000000000000000e+02 4.791473755186719359e+02
3.010000000000000000e+02 4.005490124481324301e+02
3.020000000000000000e+02 3.388860912863065096e+02
3.030000000000000000e+02 2.847276182572607581e+02
3.040000000000000000e+02 2.377875258799177232e+02
3.050000000000000000e+02 2.050359917012449955e+02
3.060000000000000000e+02 2.185431701244811507e+02
3.070000000000000000e+02 2.335682572614107073e+02
3.080000000000000000e+02 2.452168568464731777e+02
3.090000000000000000e+02 2.661219813278012793e+02
3.100000000000000000e+02 3.108928464730296355e+02
3.110000000000000000e+02 3.651298858921167607e+02
3.120000000000000000e+02 4.205021659751038214e+02
3.130000000000000000e+02 4.936390497925316367e+02
3.140000000000000000e+02 5.919453692946067349e+02
3.150000000000000000e+02 6.864188755186733033e+02
3.160000000000000000e+02 7.465664647302912726e+02
3.170000000000000000e+02 8.175009336099582242e+02
3.180000000000000000e+02 8.665832240663900166e+02
3.190000000000000000e+02 8.414527759336101553e+02
3.200000000000000000e+02 8.375282712215323500e+02
3.210000000000000000e+02 7.362033443983376628e+02
3.220000000000000000e+02 5.988830331950185837e+02
3.230000000000000000e+02 4.864814066390027278e+02
3.240000000000000000e+02 4.065550993788801293e+02
3.250000000000000000e+02 3.256820871369290558e+02
3.260000000000000000e+02 2.633712510373439954e+02
3.270000000000000000e+02 2.202720477178419003e+02
3.280000000000000000e+02 1.828650062240657519e+02
3.290000000000000000e+02 1.343176182572612731e+02
3.300000000000000000e+02 8.542006224066379616e+01
3.310000000000000000e+02 5.532834024896262548e+01
3.320000000000000000e+02 5.288542738589212178e+01
3.330000000000000000e+02 7.671113664596312276e+01
3.340000000000000000e+02 6.607886514522785149e+01
3.350000000000000000e+02 4.726429875518646639e+01
3.360000000000000000e+02 4.808580290456485073e+01
3.370000000000000000e+02 6.989847717842330610e+01
3.380000000000000000e+02 8.645364315352715323e+01
3.390000000000000000e+02 1.140757800829879471e+02
3.400000000000000000e+02 1.589543153526962840e+02
3.410000000000000000e+02 2.003776161825728366e+02
3.420000000000000000e+02 2.310794626556019580e+02
3.430000000000000000e+02 2.851199522821581240e+02
3.440000000000000000e+02 3.488791804979250628e+02
3.450000000000000000e+02 4.145990248447218391e+02
3.460000000000000000e+02 4.836252531120350682e+02
3.470000000000000000e+02 5.582662157676329571e+02
3.480000000000000000e+02 6.323156431535248885e+02
3.490000000000000000e+02 7.324685776397502650e+02
3.500000000000000000e+02 7.907198692946057008e+02
3.510000000000000000e+02 7.848352116182575173e+02
3.520000000000000000e+02 7.568029273858923034e+02
3.530000000000000000e+02 7.330157101449274251e+02
3.540000000000000000e+02 6.964947593361000600e+02
3.550000000000000000e+02 6.223610373443991648e+02
3.560000000000000000e+02 5.421345228215769794e+02
3.570000000000000000e+02 5.231073229813667922e+02
3.580000000000000000e+02 5.017311161825731460e+02
3.590000000000000000e+02 4.751620435684653216e+02
3.600000000000000000e+02 4.435071763485485690e+02
3.610000000000000000e+02 4.113682178423240430e+02
3.620000000000000000e+02 3.964956390041494387e+02
3.630000000000000000e+02 3.875170082987552291e+02
3.640000000000000000e+02 3.751908340248962759e+02
3.650000000000000000e+02 3.663956141078837732e+02
3.660000000000000000e+02 3.689314626556016492e+02
3.670000000000000000e+02 3.681929854771784107e+02
3.680000000000000000e+02 3.629819087136929738e+02
3.690000000000000000e+02 3.482877033195020999e+02
3.700000000000000000e+02 3.277786348547720650e+02
3.710000000000000000e+02 3.082758879668053282e+02
3.720000000000000000e+02 2.775244481327806625e+02
3.730000000000000000e+02 2.433963775933616489e+02
3.740000000000000000e+02 2.156228962655600583e+02
3.750000000000000000e+02 1.859738174273857112e+02
3.760000000000000000e+02 1.342069605809127495e+02
3.770000000000000000e+02 1.018130705394190159e+02
3.780000000000000000e+02 6.967616770186303654e+01
3.790000000000000000e+02 4.263268879668066091e+01
3.800000000000000000e+02 2.507727800829885467e+01
3.810000000000000000e+02 7.381402489626585073e+00
3.820000000000000000e+02 4.582788819875585062e+00
3.830000000000000000e+02 1.314078423236505699e+01
3.840000000000000000e+02 2.598824066390019993e+01
3.850000000000000000e+02 3.764581120331946806e+01
3.860000000000000000e+02 2.497909523809511967e+01
3.870000000000000000e+02 2.536196265560169394e+01
3.880000000000000000e+02 2.726779668049791638e+01
3.890000000000000000e+02 2.530812448132777348e+01
3.900000000000000000e+02 2.315797510373445078e+01
3.910000000000000000e+02 2.548773858921159885e+01
3.920000000000000000e+02 2.615286721991701313e+01
3.930000000000000000e+02 2.605712240663900658e+01
3.940000000000000000e+02 2.209480290456430396e+01
3.950000000000000000e+02 1.271264730290460676e+01
3.960000000000000000e+02 7.472792531120365567e+00
3.970000000000000000e+02 3.545041493775889840e+00
3.980000000000000000e+02 5.754962655601703503e+00
3.990000000000000000e+02 9.345197095435789691e+00
4.000000000000000000e+02 2.674072821576780257e+01
4.010000000000000000e+02 1.463697510373445887e+01
4.020000000000000000e+02 3.387021118012459908e+01
4.030000000000000000e+02 4.637819917012453885e+01
4.040000000000000000e+02 4.387125311203317324e+01
4.050000000000000000e+02 5.067607883817424153e+01
4.060000000000000000e+02 6.526312448132780730e+01
4.070000000000000000e+02 7.367218633540367989e+01
4.080000000000000000e+02 6.829649377593361237e+01
4.090000000000000000e+02 6.810077178423235011e+01
4.100000000000000000e+02 9.858212863070534127e+01
4.110000000000000000e+02 1.138852380952382362e+02
4.120000000000000000e+02 1.058439253112031224e+02
4.130000000000000000e+02 9.893540663900412824e+01
4.140000000000000000e+02 1.076606639004152726e+02
4.150000000000000000e+02 1.228274502074689138e+02
4.160000000000000000e+02 1.154475290456432077e+02
4.170000000000000000e+02 1.146941493775933480e+02
4.180000000000000000e+02 1.220609273858921142e+02
4.190000000000000000e+02 1.320517018633539124e+02
4.200000000000000000e+02 1.414105933609958470e+02
4.210000000000000000e+02 1.288723153526970293e+02
4.220000000000000000e+02 1.249480207468879911e+02
4.230000000000000000e+02 1.372354937759336622e+02
4.240000000000000000e+02 1.511889128630705841e+02
4.250000000000000000e+02 1.488798838174273840e+02
4.260000000000000000e+02 1.648404377593364529e+02
4.270000000000000000e+02 1.761103319502076374e+02
4.280000000000000000e+02 1.719965477178424464e+02
4.290000000000000000e+02 1.596340497925311581e+02
4.300000000000000000e+02 1.602394979253112126e+02
4.310000000000000000e+02 1.795091345755692771e+02
4.320000000000000000e+02 1.829197697095434876e+02
4.330000000000000000e+02 1.803607614107884274e+02
4.340000000000000000e+02 1.834209605809128618e+02
4.350000000000000000e+02 1.853562510373444923e+02
4.360000000000000000e+02 2.050788447204974716e+02
4.370000000000000000e+02 2.295992987551870783e+02
4.380000000000000000e+02 2.410918962655602229e+02
4.390000000000000000e+02 2.456811369294608483e+02
4.400000000000000000e+02 2.649787039337472834e+02
4.410000000000000000e+02 2.613762240663900229e+02
4.420000000000000000e+02 2.617499066390041662e+02
4.430000000000000000e+02 2.783672551867221046e+02
4.440000000000000000e+02 3.101039668049798479e+02
4.450000000000000000e+02 3.439364854771789055e+02
4.460000000000000000e+02 3.705525892116185673e+02
4.470000000000000000e+02 3.763643029045643402e+02
4.480000000000000000e+02 3.945896086956521458e+02
4.490000000000000000e+02 4.295851410788384896e+02
4.500000000000000000e+02 4.477129087136933663e+02
4.510000000000000000e+02 4.873340829875508575e+02
4.520000000000000000e+02 5.476012883817411421e+02
4.530000000000000000e+02 5.903076721991701561e+02
4.540000000000000000e+02 6.173222323651452825e+02
4.550000000000000000e+02 6.709371203319501547e+02
4.560000000000000000e+02 7.198420559006212898e+02
4.570000000000000000e+02 7.732364045643166719e+02
4.580000000000000000e+02 8.421821659751021798e+02
4.590000000000000000e+02 9.215962427385878755e+02
4.600000000000000000e+02 9.903376521739129430e+02
4.610000000000000000e+02 1.031225697095434953e+03
4.620000000000000000e+02 1.116255813278006599e+03
4.630000000000000000e+02 1.202896684647301754e+03
4.640000000000000000e+02 1.257857448132779382e+03
4.650000000000000000e+02 1.298661427385891784e+03
4.660000000000000000e+02 1.356101968879667993e+03
4.670000000000000000e+02 1.423317549792531281e+03
4.680000000000000000e+02 1.438460809128630672e+03
4.690000000000000000e+02 1.414018497925311522e+03
4.700000000000000000e+02 1.396683813278008984e+03
4.710000000000000000e+02 1.361351560165976025e+03
4.720000000000000000e+02 1.293190136929461687e+03
4.730000000000000000e+02 1.204611925311204004e+03
4.740000000000000000e+02 1.112117892116183384e+03
4.750000000000000000e+02 1.023944448132780963e+03
4.760000000000000000e+02 9.289035850622417456e+02
4.770000000000000000e+02 8.236926390041498962e+02
4.780000000000000000e+02 7.301714232365146700e+02
4.790000000000000000e+02 6.315863858921160272e+02
4.800000000000000000e+02 5.199515477178418905e+02
4.810000000000000000e+02 4.389831037344392257e+02
4.820000000000000000e+02 3.639711307053956375e+02
4.830000000000000000e+02 2.986598112033204870e+02
4.840000000000000000e+02 2.496968817427390945e+02
4.850000000000000000e+02 2.164999130434788412e+02
4.860000000000000000e+02 1.907453900414938630e+02
4.870000000000000000e+02 1.746680871369295289e+02
4.880000000000000000e+02 1.639011452282158245e+02
4.890000000000000000e+02 1.443164285714283324e+02
4.900000000000000000e+02 1.181690560165975654e+02
4.910000000000000000e+02 1.038150269709543352e+02
4.920000000000000000e+02 9.136532572614102321e+01
4.930000000000000000e+02 8.559509543568462675e+01
4.940000000000000000e+02 8.104738174273869333e+01
4.950000000000000000e+02 7.295818672199189336e+01
4.960000000000000000e+02 6.191545228215783681e+01
4.970000000000000000e+02 5.252322821576765932e+01
4.980000000000000000e+02 5.419104149377594126e+01
4.990000000000000000e+02 5.507281327800829018e+01
5.000000000000000000e+02 5.024216597510372395e+01
5.010000000000000000e+02 4.195808506224065582e+01
5.020000000000000000e+02 2.946121739130420991e+01
5.030000000000000000e+02 2.164759336099584885e+01
5.040000000000000000e+02 2.679361825726146407e+01
5.050000000000000000e+02 2.672456016597500650e+01
5.060000000000000000e+02 1.651246887966810206e+01
5.070000000000000000e+02 2.813444813277995493e+01
5.080000000000000000e+02 2.388282780082999324e+01
5.090000000000000000e+02 1.712057261410792464e+01
5.100000000000000000e+02 1.725402489626562286e+01
5.110000000000000000e+02 2.160207883817425412e+01
5.120000000000000000e+02 1.692364730290441344e+01
5.130000000000000000e+02 1.015170124481344516e+01
5.140000000000000000e+02 7.364043478260887454e+00
5.150000000000000000e+02 6.512500000000000178e+00
5.160000000000000000e+02 9.346278008298902762e+00
5.170000000000000000e+02 1.594435892116186437e+01
5.180000000000000000e+02 7.499929460580688101e+00
5.190000000000000000e+02 5.331871369294651331e+00
5.200000000000000000e+02 5.801668049792731985e+00
5.210000000000000000e+02 9.678257261411584711e-01
5.220000000000000000e+02 1.508486542443035816e+00
5.230000000000000000e+02 5.766921161825914410e+00
5.240000000000000000e+02 5.989802904564525576e+00
5.250000000000000000e+02 7.806807053942091734e+00
5.260000000000000000e+02 6.924683229813669350e+00
5.270000000000000000e+02 1.489005394190870923e+01
5.280000000000000000e+02 2.242507883817430070e+01
5.290000000000000000e+02 2.182953941908710505e+01
5.300000000000000000e+02 9.919354037266904456e+00
5.310000000000000000e+02 9.106815352697481103e+00
5.320000000000000000e+02 1.853846473029035380e+01
5.330000000000000000e+02 1.842423236514505902e+01
5.340000000000000000e+02 5.156526970954475431e+00
5.350000000000000000e+02 4.092448132780692749e-01
5.360000000000000000e+02 2.946908713693053183e+00
5.370000000000000000e+02 8.285825726140853220e+00
5.380000000000000000e+02 1.136291286307034731e+01
5.390000000000000000e+02 3.238931535269716999e+00
5.400000000000000000e+02 2.948020746888011967e+00
5.410000000000000000e+02 1.415128630705363211e+00
5.420000000000000000e+02 1.195620331950208115e+00
5.430000000000000000e+02 1.496900621118105956e+00
5.440000000000000000e+02 3.682925311203402607e+00
5.450000000000000000e+02 9.980850622407242412e+00
5.460000000000000000e+02 4.714037344398466445e+00
5.470000000000000000e+02 4.217630705394472379e+00
5.480000000000000000e+02 8.208114107883915267e+00
5.490000000000000000e+02 8.638072614108459391e+00
5.500000000000000000e+02 8.439765560166275549e+00
5.510000000000000000e+02 1.512511801242239251e+01
5.520000000000000000e+02 5.161344398339830164e+00
5.530000000000000000e+02 3.210456431535342769e+00
5.540000000000000000e+02 1.120304149377584579e+01
5.550000000000000000e+02 6.777912863070597815e+00
5.560000000000000000e+02 2.056151452282135850e+01
5.570000000000000000e+02 1.805347925311144408e+01
5.580000000000000000e+02 2.871186721991861646e+00
5.590000000000000000e+02 5.152397515527940897e+00
5.600000000000000000e+02 3.260609958506291761e+00
5.610000000000000000e+02 1.776736099585031781e+01
5.620000000000000000e+02 1.560758506224047970e+01
5.630000000000000000e+02 8.547795031056041992e+00
5.640000000000000000e+02 3.253294605808965567e+00
5.650000000000000000e+02 6.909979253111969699e-01
5.660000000000000000e+02 2.373593360995351453e+00
5.670000000000000000e+02 1.865381950207488515e+01
5.680000000000000000e+02 3.047279668049780099e+01
5.690000000000000000e+02 3.467142323651450653e+01
5.700000000000000000e+02 3.329207883817431224e+01
5.710000000000000000e+02 2.477207468879704066e+01
5.720000000000000000e+02 7.559792960662321093e+00
5.730000000000000000e+02 7.010630705394039097e+00
5.740000000000000000e+02 8.654856846473055754e+00
5.750000000000000000e+02 1.136769709543557205e+01
5.760000000000000000e+02 1.299854451345724904e+01
5.770000000000000000e+02 7.473473029045700322e+00
5.780000000000000000e+02 2.242933195020701120e+01
5.790000000000000000e+02 2.297738589211610361e+01
5.800000000000000000e+02 1.562109937888226519e+01
5.810000000000000000e+02 1.081294813278008249e+01
5.820000000000000000e+02 1.390864730290449103e+01
5.830000000000000000e+02 2.016628423236514323e+01
5.840000000000000000e+02 1.121312655601664332e+01
5.850000000000000000e+02 1.044085062240643680e+01
5.860000000000000000e+02 9.323580912862848180e+00
5.870000000000000000e+02 4.862489626555985822e+00
5.880000000000000000e+02 1.298073706004096550e+01
5.890000000000000000e+02 2.104752904564318783e+01
5.900000000000000000e+02 3.028092738589180044e+01
5.910000000000000000e+02 3.470968257261409207e+01
5.920000000000000000e+02 2.743295435684694539e+01
5.930000000000000000e+02 1.578062240663915716e+01
5.940000000000000000e+02 3.606285892116168412e+01
5.950000000000000000e+02 3.814285477178423633e+01
5.960000000000000000e+02 3.350034161490678741e+01
5.970000000000000000e+02 1.531217219917109240e+01
5.980000000000000000e+02 6.158029045643185206e-01
5.990000000000000000e+02 1.408192116182525311e+01
6.000000000000000000e+02 3.011499377593396787e+01
6.010000000000000000e+02 1.339214522821567854e+01
6.020000000000000000e+02 1.224108713692885964e+01
6.030000000000000000e+02 2.234962655601663784e+01
6.040000000000000000e+02 2.521546887966800199e+01
6.050000000000000000e+02 2.468515975103724003e+01
6.060000000000000000e+02 1.820309543568472677e+01
6.070000000000000000e+02 1.253798132780076990e+01
6.080000000000000000e+02 4.258823651452281922e+00
6.090000000000000000e+02 5.233028985507305997e+00
6.100000000000000000e+02 1.611220746887957489e+01
6.110000000000000000e+02 5.349489626556207966e+00
6.120000000000000000e+02 1.655357676348602070e+01
6.130000000000000000e+02 2.292213664596273048e+01
6.140000000000000000e+02 3.254146680497863997e+01
6.150000000000000000e+02 3.325894813277994899e+01
6.160000000000000000e+02 7.659948132780787233e+00
6.170000000000000000e+02 2.100109128630746724e+01
6.180000000000000000e+02 3.063422821576758182e+01
6.190000000000000000e+02 3.249155186721988287e+01
6.200000000000000000e+02 3.266412033195019404e+01
6.210000000000000000e+02 2.935303319502119379e+01
6.220000000000000000e+02 1.488659128630667894e+01
6.230000000000000000e+02 4.495473029045724545e+00
6.240000000000000000e+02 2.073559543568533314e+01
6.250000000000000000e+02 2.053152795031065025e+01
6.260000000000000000e+02 4.286522821577073650e+00
6.270000000000000000e+02 2.745788381742747308e+00
6.280000000000000000e+02 5.451248962655485641e+00
6.290000000000000000e+02 6.107493775933829028e+00
6.300000000000000000e+02 4.818968879667897554e+00
6.310000000000000000e+02 8.647914937759017207e+00
6.320000000000000000e+02 4.253869294605785001e+00
6.330000000000000000e+02 1.072316390041526546e+01
6.340000000000000000e+02 2.003073029045636488e+01
6.350000000000000000e+02 1.083428630705416218e+01
6.360000000000000000e+02 1.978307883817480928e+01
6.370000000000000000e+02 2.205155601659783571e+01
6.380000000000000000e+02 1.621440993788812790e+01
6.390000000000000000e+02 2.328816804979259203e+01
6.400000000000000000e+02 2.714295850622400863e+01
6.410000000000000000e+02 3.047358713692949905e+01
6.420000000000000000e+02 2.043777846790899488e+01
6.430000000000000000e+02 1.433046473029044598e+01
6.440000000000000000e+02 1.793297095435684696e+01
6.450000000000000000e+02 1.778149792531118223e+01
6.460000000000000000e+02 1.709561283643891727e+01
6.470000000000000000e+02 1.571453941908715812e+01
6.480000000000000000e+02 1.563826141078843790e+01
6.490000000000000000e+02 2.065825311203298043e+01
6.500000000000000000e+02 3.132913278008303593e+01
6.510000000000000000e+02 3.854588381742737369e+01
6.520000000000000000e+02 2.649397095435694638e+01
6.530000000000000000e+02 1.064175103734415728e+01
6.540000000000000000e+02 9.819855072463554713e-01
6.550000000000000000e+02 3.249298755187071563e+00
6.560000000000000000e+02 1.764001452282145976e+01
6.570000000000000000e+02 3.469788174273774217e+01
6.580000000000000000e+02 1.636568115942026225e+01
6.590000000000000000e+02 1.779049792531107599e+01
6.600000000000000000e+02 1.695412448132760375e+01
6.610000000000000000e+02 1.132655186722003471e+01
6.620000000000000000e+02 4.692290456431218892e+00
6.630000000000000000e+02 5.349811203319612574e+00
6.640000000000000000e+02 1.229217842323673260e+00
6.650000000000000000e+02 5.921852697095308926e+00
6.660000000000000000e+02 3.078572614107931926e+00
6.670000000000000000e+02 2.217472049689521274e+00
6.680000000000000000e+02 2.475049792531172521e+00
6.690000000000000000e+02 1.920253112033169618e+00
6.700000000000000000e+02 1.721000000000000085e+00
6.710000000000000000e+02 6.105533195020344195e+00
6.720000000000000000e+02 2.181193775933652645e+01
6.730000000000000000e+02 2.417901037344437043e+01
6.740000000000000000e+02 1.091524896265558198e+01
6.750000000000000000e+02 9.418271221532084070e+00
6.760000000000000000e+02 1.149043983402495073e+01
6.770000000000000000e+02 1.721706639004155903e+01
6.780000000000000000e+02 1.049168049792588420e+01
6.790000000000000000e+02 6.308273858921490174e+00
6.800000000000000000e+02 1.705265560165965155e+01
6.810000000000000000e+02 2.419587551867243747e+01
6.820000000000000000e+02 7.953477178423234761e+00
6.830000000000000000e+02 1.592547826086883056e+01
6.840000000000000000e+02 2.262558506224038268e+01
6.850000000000000000e+02 2.082246473029014311e+01
6.860000000000000000e+02 3.174257676348551982e+01
6.870000000000000000e+02 3.428710580912868267e+01
6.880000000000000000e+02 4.090762448132771567e+01
6.890000000000000000e+02 3.261121784232351928e+01
6.900000000000000000e+02 3.286195020746854567e+01
6.910000000000000000e+02 3.624463354037272467e+01
6.920000000000000000e+02 3.620667634854769545e+01
6.930000000000000000e+02 4.130531950207453917e+01
6.940000000000000000e+02 4.458853941908713381e+01
6.950000000000000000e+02 3.204583402489682697e+01
6.960000000000000000e+02 3.790513278008345566e+01
6.970000000000000000e+02 4.345769709543583303e+01
6.980000000000000000e+02 3.964064730290477456e+01
6.990000000000000000e+02 4.183784647302928761e+01
7.000000000000000000e+02 2.855746887966796166e+01
7.010000000000000000e+02 4.210939004149401654e+01
7.020000000000000000e+02 5.281223236514511399e+01
7.030000000000000000e+02 4.807114937759311601e+01
7.040000000000000000e+02 4.898289004149359727e+01
7.050000000000000000e+02 6.376012240663903441e+01
7.060000000000000000e+02 5.196761410788383273e+01
7.070000000000000000e+02 6.569143568464690475e+01
7.080000000000000000e+02 5.645251037344332445e+01
7.090000000000000000e+02 4.579283817427396031e+01
7.100000000000000000e+02 5.046278423236546473e+01
7.110000000000000000e+02 5.867929606625276051e+01
7.120000000000000000e+02 4.670707468879700031e+01
7.130000000000000000e+02 4.237572406639002054e+01
7.140000000000000000e+02 4.118677593361009315e+01
7.150000000000000000e+02 2.920136514522785376e+01
7.160000000000000000e+02 2.738971784232336404e+01
7.170000000000000000e+02 3.118192946058106685e+01
7.180000000000000000e+02 5.681792531120323453e+00
7.190000000000000000e+02 3.543283402489566214e+01
7.200000000000000000e+02 4.739849068322966019e+01
7.210000000000000000e+02 3.293942531120376316e+01
7.220000000000000000e+02 2.808556639004167366e+01
7.230000000000000000e+02 4.107411203319475845e+01
7.240000000000000000e+02 5.308297515527917909e+01
7.250000000000000000e+02 4.299772614107864399e+01
7.260000000000000000e+02 2.828742738589240702e+01
7.270000000000000000e+02 2.943653941908728200e+01
7.280000000000000000e+02 3.050309543568492998e+01
7.290000000000000000e+02 2.617806016597511842e+01
7.300000000000000000e+02 2.827875933609958281e+01
7.310000000000000000e+02 2.685038174273859468e+01
7.320000000000000000e+02 2.379679045643151980e+01
7.330000000000000000e+02 2.250217427385893743e+01
7.340000000000000000e+02 2.046980082987541749e+01
7.350000000000000000e+02 1.280580497925333106e+01
7.360000000000000000e+02 7.810713692946199771e+00
7.370000000000000000e+02 2.510341614906847951e+01
7.380000000000000000e+02 1.734842531120361286e+01
7.390000000000000000e+02 1.288739419087137605e+01
7.400000000000000000e+02 1.455191925465826053e+01
7.410000000000000000e+02 2.165365145228235377e+01
7.420000000000000000e+02 2.254530290456437314e+01
7.430000000000000000e+02 6.483033195020690087e+00
7.440000000000000000e+02 8.941269709543595567e+00
7.450000000000000000e+02 1.686121576763469321e+01
7.460000000000000000e+02 1.524879253112007227e+01
7.470000000000000000e+02 1.244723029045642271e+01
7.480000000000000000e+02 1.049041701244788882e+01
7.490000000000000000e+02 6.219267080745332521e+00
7.500000000000000000e+02 1.104150207468858724e+01
7.510000000000000000e+02 2.369378423236514308e+01
7.520000000000000000e+02 1.392841493775970996e+01
7.530000000000000000e+02 9.262273291925517071e+00
7.540000000000000000e+02 1.303798132780081964e+01
7.550000000000000000e+02 1.518521784232366834e+01
7.560000000000000000e+02 1.402169502074686847e+01
7.570000000000000000e+02 8.151535269709482279e+00
7.580000000000000000e+02 6.262518672199146152e+00
7.590000000000000000e+02 3.170987551867300525e+00
7.600000000000000000e+02 1.099473029045599848e+00
7.610000000000000000e+02 8.356937759335931304e+00
7.620000000000000000e+02 2.176803941908697482e+01
7.630000000000000000e+02 1.964188796680492999e+01
7.640000000000000000e+02 2.270686929460567782e+01
7.650000000000000000e+02 2.176831120331933533e+01
7.660000000000000000e+02 9.899165975103789705e+00
7.670000000000000000e+02 8.658049792531808952e-01
7.680000000000000000e+02 5.718917012448176962e+00
7.690000000000000000e+02 1.381562939958581815e+01
7.700000000000000000e+02 6.309041493775840337e+00
7.710000000000000000e+02 1.140740456431520222e+01
7.720000000000000000e+02 1.099050207468853912e+01
7.730000000000000000e+02 1.030429875518667693e+01
7.740000000000000000e+02 1.025898340248968310e+01
7.750000000000000000e+02 1.013945643153541987e+01
7.760000000000000000e+02 2.566637344398326448e+01
7.770000000000000000e+02 5.031535269709232594e+00
7.780000000000000000e+02 8.916141078837642731e-01
7.790000000000000000e+02 9.261618257261501341e+00
7.800000000000000000e+02 1.195648132780084083e+01
7.810000000000000000e+02 1.470268879668053685e+01
7.820000000000000000e+02 1.274214937759301058e+01
7.830000000000000000e+02 3.752539419087173034e+00
7.840000000000000000e+02 1.268639419087171127e+01
7.850000000000000000e+02 1.029673029045654786e+01
7.860000000000000000e+02 4.897432712215333162e+00
7.870000000000000000e+02 1.491211618257190397e+00
7.880000000000000000e+02 3.847300829875501371e+00
7.890000000000000000e+02 2.055032365145255824e+01
7.900000000000000000e+02 8.286605809129088840e+00
7.910000000000000000e+02 2.710614107883694057e+00
7.920000000000000000e+02 6.180157676348552620e+00
7.930000000000000000e+02 3.524112033195323512e+00
7.940000000000000000e+02 4.123817427385910506e+00
7.950000000000000000e+02 2.864354771784337395e+00
7.960000000000000000e+02 6.300780082987552433e+00
7.970000000000000000e+02 3.799143153527000827e+00
7.980000000000000000e+02 8.255815734989665700e+00
7.990000000000000000e+02 7.847336099584974356e+00
8.000000000000000000e+02 1.623348962655510519e+01
8.010000000000000000e+02 2.262731120331921630e+01
8.020000000000000000e+02 4.203941908714039499e+00
8.030000000000000000e+02 5.307269709543396274e+00
8.040000000000000000e+02 9.443437759336104520e+00
8.050000000000000000e+02 3.669558091285612722e+00
8.060000000000000000e+02 1.346891304347825979e+01
8.070000000000000000e+02 5.278128630705189117e+00
8.080000000000000000e+02 1.627139004149373847e+01
8.090000000000000000e+02 1.059475518672210903e+01
8.100000000000000000e+02 5.218717842323668421e+00
8.110000000000000000e+02 1.898539211618281541e+01
8.120000000000000000e+02 1.968129253112063637e+01
8.130000000000000000e+02 1.391677178423227801e+01
8.140000000000000000e+02 8.563987551867477066e+00
8.150000000000000000e+02 7.425639751552552070e+00
8.160000000000000000e+02 1.774641493775934364e+01
8.170000000000000000e+02 1.103494190871397507e+01
8.180000000000000000e+02 1.609468879668057184e+01
8.190000000000000000e+02 2.903885093167682996e+01
8.200000000000000000e+02 1.714281950207400129e+01
8.210000000000000000e+02 4.343450207468661617e+00
8.220000000000000000e+02 1.451778215767626889e+01
8.230000000000000000e+02 9.653662525879916245e+00
8.240000000000000000e+02 1.111887136929452069e+01
8.250000000000000000e+02 1.271953112033196120e+01
8.260000000000000000e+02 9.056576763485633563e+00
8.270000000000000000e+02 1.673067634854824703e+01
8.280000000000000000e+02 2.442721576763485203e+01
8.290000000000000000e+02 1.601388796680526383e+01
8.300000000000000000e+02 6.558487551867152376e+00
8.310000000000000000e+02 7.442753623188695933e-01
8.320000000000000000e+02 1.980631950207518344e+01
8.330000000000000000e+02 2.668529875518677130e+01
8.340000000000000000e+02 2.017698340248942657e+01
8.350000000000000000e+02 2.186664389233951056e+01
8.360000000000000000e+02 3.349275311203332706e+01
8.370000000000000000e+02 2.399210995850582862e+01
8.380000000000000000e+02 5.274029045643484181e+00
8.390000000000000000e+02 5.898556016597728657e+00
8.400000000000000000e+02 1.185582572614108088e+01
8.410000000000000000e+02 1.945190456431519266e+01
8.420000000000000000e+02 3.025775518672209330e+01
8.430000000000000000e+02 3.380315767634869673e+01
8.440000000000000000e+02 1.912739751552757994e+01
8.450000000000000000e+02 2.531741493775927054e+01
8.460000000000000000e+02 3.170792531120179003e+00
8.470000000000000000e+02 1.310989626556001397e+01
8.480000000000000000e+02 1.432439419087207177e+01
8.490000000000000000e+02 8.123871369294906941e+00
8.500000000000000000e+02 1.836004564315347665e+01
8.510000000000000000e+02 1.730735269709533597e+01
8.520000000000000000e+02 1.241617391304355600e+01
8.530000000000000000e+02 4.905390041493800979e+00
8.540000000000000000e+02 9.376508298755258153e+00
8.550000000000000000e+02 1.305277385892116904e+01
8.560000000000000000e+02 1.479082987551874240e+01
8.570000000000000000e+02 1.661752697095437981e+01
8.580000000000000000e+02 1.132825726141057565e+01
8.590000000000000000e+02 9.230663900414915801e+00
8.600000000000000000e+02 1.308041493775914077e+01
8.610000000000000000e+02 1.776627800829877657e+01
8.620000000000000000e+02 1.273573858921195878e+01
8.630000000000000000e+02 2.593624481327644560e+00
8.640000000000000000e+02 7.081043478260313329e+00
8.650000000000000000e+02 2.702508713692938258e+01
8.660000000000000000e+02 4.116199170124389184e+00
8.670000000000000000e+02 7.828676348547690012e+00
8.680000000000000000e+02 1.300213871635616059e+01
8.690000000000000000e+02 6.909709543568622436e+00
8.700000000000000000e+02 8.890290456432099475e+00
8.710000000000000000e+02 1.679375518672196321e+01
8.720000000000000000e+02 1.182682572614072036e+01
8.730000000000000000e+02 2.312692946058291010e+00
8.740000000000000000e+02 1.367117427385892547e+01
8.750000000000000000e+02 8.201688796680432603e+00
8.760000000000000000e+02 1.836128215767589467e+01
8.770000000000000000e+02 2.633516804979248960e+01
8.780000000000000000e+02 2.950332157676355749e+01
8.790000000000000000e+02 3.187611618257253099e+01
8.800000000000000000e+02 2.254561618257256583e+01
8.810000000000000000e+02 2.410630434782608944e+01
8.820000000000000000e+02 1.761184647302875916e+01
8.830000000000000000e+02 3.127301244813258663e+01
8.840000000000000000e+02 2.882336514522722126e+01
8.850000000000000000e+02 2.893926556016594276e+01
8.860000000000000000e+02 4.092840041493810332e+01
8.870000000000000000e+02 3.478934024896285138e+01
8.880000000000000000e+02 4.262587551867206770e+01
8.890000000000000000e+02 4.391049275362307469e+01
8.900000000000000000e+02 2.854672199170117608e+01
8.910000000000000000e+02 3.790581742738635995e+01
8.920000000000000000e+02 4.151320331950181242e+01
8.930000000000000000e+02 3.796684886128322489e+01
8.940000000000000000e+02 4.535103526970917187e+01
8.950000000000000000e+02 3.015571576763495543e+01
8.960000000000000000e+02 3.138083817427363442e+01
8.970000000000000000e+02 4.465703726708095900e+01
8.980000000000000000e+02 3.847823236514557266e+01
8.990000000000000000e+02 4.014366804979280090e+01
9.000000000000000000e+02 4.710036514522820994e+01
9.010000000000000000e+02 5.069265838509340227e+01
9.020000000000000000e+02 5.794650414937756011e+01
9.030000000000000000e+02 5.391519502074648074e+01
9.040000000000000000e+02 6.582732157676352358e+01
9.050000000000000000e+02 4.917703734439913177e+01
9.060000000000000000e+02 4.706751037344380251e+01
9.070000000000000000e+02 5.204929875518673299e+01
9.080000000000000000e+02 5.273544398340241202e+01
9.090000000000000000e+02 6.159977178423231692e+01
9.100000000000000000e+02 7.518959627329179796e+01
9.110000000000000000e+02 6.692656846473001053e+01
9.120000000000000000e+02 5.768507676348570357e+01
9.130000000000000000e+02 5.066238381742734731e+01
9.140000000000000000e+02 5.310159420289843268e+01
9.150000000000000000e+02 5.743018672199163888e+01
9.160000000000000000e+02 6.299271369294626766e+01
9.170000000000000000e+02 6.808668464730391179e+01
9.180000000000000000e+02 5.041213664596262589e+01
9.190000000000000000e+02 7.323349377593349629e+01
9.200000000000000000e+02 6.043302697095463571e+01
9.210000000000000000e+02 5.545964730290454270e+01
9.220000000000000000e+02 1.703285062240901482e+01
9.230000000000000000e+02 4.995904149377661696e+01
9.240000000000000000e+02 1.991869709543725264e+01
9.250000000000000000e+02 4.577681327800907241e+01
9.260000000000000000e+02 5.145977018633541178e+01
9.270000000000000000e+02 3.513815560165983243e+01
9.280000000000000000e+02 4.031235892116193753e+01
9.290000000000000000e+02 4.736462863070528329e+01
9.300000000000000000e+02 4.885524896265558681e+01
9.310000000000000000e+02 3.682486721991732281e+01
9.320000000000000000e+02 2.651114937759335177e+01
9.330000000000000000e+02 4.322552282157673886e+01
9.340000000000000000e+02 3.147027950310548761e+01
9.350000000000000000e+02 2.561992323651561776e+01
9.360000000000000000e+02 2.058488381742649054e+01
9.370000000000000000e+02 3.231630082987495456e+01
9.380000000000000000e+02 2.518570124481329131e+01
9.390000000000000000e+02 2.226002489626588243e+01
9.400000000000000000e+02 1.657986307053948849e+01
9.410000000000000000e+02 2.241196680497903060e+01
9.420000000000000000e+02 2.396475103734423584e+01
9.430000000000000000e+02 1.169980912863075773e+01
9.440000000000000000e+02 1.546407468879676195e+01
9.450000000000000000e+02 1.074593568464736038e+01
9.460000000000000000e+02 1.638382780082991275e+01
9.470000000000000000e+02 1.785916149068272318e+01
9.480000000000000000e+02 6.359531120331499032e+00
9.490000000000000000e+02 2.951434439834058665e+01
9.500000000000000000e+02 1.901272199170151112e+01
9.510000000000000000e+02 1.455591908713694060e+01
9.520000000000000000e+02 2.489913900414950376e+01
9.530000000000000000e+02 9.446199170125836986e+00
9.540000000000000000e+02 4.135134854772048563e+00
9.550000000000000000e+02 1.782449792531107491e+01
9.560000000000000000e+02 1.988013278008263995e+01
9.570000000000000000e+02 5.415116182572666581e+00
9.580000000000000000e+02 1.362950207468974551e+00
9.590000000000000000e+02 1.489679045643186228e+01
9.600000000000000000e+02 2.054021161825730246e+01
9.610000000000000000e+02 9.892717842323090593e+00
9.620000000000000000e+02 7.760680497925122268e+00
9.630000000000000000e+02 1.144317184265021936e+01
9.640000000000000000e+02 1.109844398340255367e+01
9.650000000000000000e+02 2.265434439833991931e+01
9.660000000000000000e+02 2.943341908713694721e+01
9.670000000000000000e+02 1.222666045548715630e+01
9.680000000000000000e+02 1.883968879668010077e+00
9.690000000000000000e+02 9.371064315352599650e+00
9.700000000000000000e+02 1.252572821576736573e+01
9.710000000000000000e+02 1.224838174273861569e+01
9.720000000000000000e+02 2.020410373444008201e+01
9.730000000000000000e+02 1.462315767634872543e+01
9.740000000000000000e+02 2.099136099585073367e+01
9.750000000000000000e+02 5.966643153526449694e+00
9.760000000000000000e+02 1.831829813664600337e+01
9.770000000000000000e+02 7.060755186722451171e+00
9.780000000000000000e+02 1.277863485477219641e+01
9.790000000000000000e+02 2.409376556016592019e+01
9.800000000000000000e+02 1.114431262939870670e+01
9.810000000000000000e+02 3.523041493775886046e+00
9.820000000000000000e+02 1.643607468879678635e+01
9.830000000000000000e+02 1.782006224066390843e+01
9.840000000000000000e+02 2.983254564315331692e+01
9.850000000000000000e+02 2.879763485477148777e+01
9.860000000000000000e+02 1.479056224066424541e+01
9.870000000000000000e+02 1.108953319502107604e+01
9.880000000000000000e+02 7.514597510373239864e+00
9.890000000000000000e+02 3.729580912863082354e+00
9.900000000000000000e+02 1.401189626556060119e+01
9.910000000000000000e+02 4.095033609958480270e+01
9.920000000000000000e+02 1.887172670807322561e+01
9.930000000000000000e+02 1.000851037344400751e+01
9.940000000000000000e+02 7.419273858924233522e-01
9.950000000000000000e+02 1.181070539419094345e+00
9.960000000000000000e+02 2.009980538302377440e+01
9.970000000000000000e+02 3.033349377593322416e+01
9.980000000000000000e+02 1.264289626556080393e+01
9.990000000000000000e+02 5.117585062240381788e+00
1.000000000000000000e+03 1.591232365145205385e+01
1.001000000000000000e+03 1.580512033195018518e+01
1.002000000000000000e+03 2.521644605809151329e+01
1.003000000000000000e+03 1.312308921161836572e+01
1.004000000000000000e+03 6.918443983402806197e+00
1.005000000000000000e+03 2.175590871369283974e+01
1.006000000000000000e+03 2.193307053941850882e+01
1.007000000000000000e+03 7.630000000000000115e-01
1.008000000000000000e+03 5.650721991701394664e+00
1.009000000000000000e+03 1.056477178423161467e+00
1.010000000000000000e+03 1.537601659750978733e+00
1.011000000000000000e+03 4.032599585062246028e+00
1.012000000000000000e+03 3.634236514522856787e+00
1.013000000000000000e+03 3.351112033195056572e+00
1.014000000000000000e+03 6.176618257261461409e+00
1.015000000000000000e+03 1.194517427385855513e+01
1.016000000000000000e+03 1.973539419087144964e+01
1.017000000000000000e+03 1.617466873706011299e+01
1.018000000000000000e+03 1.097355394190891431e+01
1.019000000000000000e+03 6.373460580912865048e+00
1.020000000000000000e+03 9.541860995850313998e+00
1.021000000000000000e+03 3.655290456431404600e+00
1.022000000000000000e+03 8.848464730288283508e-01
1.023000000000000000e+03 7.002601659751014118e+00
1.024000000000000000e+03 6.069979253112015805e+00
1.025000000000000000e+03 1.001435477178498346e+01
1.026000000000000000e+03 2.024947302904520541e+01
1.027000000000000000e+03 1.463683609958538767e+01
1.028000000000000000e+03 8.227269709543447718e+00
1.029000000000000000e+03 2.546174273858908599e+00
1.030000000000000000e+03 4.622788381742790165e+00
1.031000000000000000e+03 9.178132780083032571e-01
1.032000000000000000e+03 8.731419087137584967e+00
1.033000000000000000e+03 1.672629045643122936e+01
1.034000000000000000e+03 9.766589211618549982e+00
1.035000000000000000e+03 9.863257261411438881e-01
1.036000000000000000e+03 7.231481327800899805e+00
1.037000000000000000e+03 4.318931677018081672e+00
1.038000000000000000e+03 2.664867219917272934e+00
1.039000000000000000e+03 9.024846473028476979e+00
1.040000000000000000e+03 9.766634854770831708e+00
1.041000000000000000e+03 1.909582987551842237e+01
1.042000000000000000e+03 1.602101867219820974e+01
1.043000000000000000e+03 2.873630705394504825e-01
1.044000000000000000e+03 2.499826348547604127e+01
1.045000000000000000e+03 1.658783195020737011e+01
1.046000000000000000e+03 1.748068737060099664e+01
1.047000000000000000e+03 1.237384647302991958e+01
1.048000000000000000e+03 1.085463485477169243e+01
1.049000000000000000e+03 1.645863900414956049e+01
1.050000000000000000e+03 1.459810373444101828e+01
1.051000000000000000e+03 7.630531120331644601e+00
1.052000000000000000e+03 1.691881742738608452e+01
1.053000000000000000e+03 2.320452489626557835e+01
1.054000000000000000e+03 1.805212033195038046e+01
1.055000000000000000e+03 2.265059336099583476e+01
1.056000000000000000e+03 1.987827800829827396e+01
1.057000000000000000e+03 1.723723236514512536e+01
1.058000000000000000e+03 2.569097095435616041e+01
1.059000000000000000e+03 2.946413900414923503e+01
1.060000000000000000e+03 1.664081742738451197e+01
1.061000000000000000e+03 6.955466804978322592e+00
1.062000000000000000e+03 1.962775776397514704e+01
1.063000000000000000e+03 1.782519502074675799e+01
1.064000000000000000e+03 1.801252697095461386e+01
1.065000000000000000e+03 1.172485477178438451e+01
1.066000000000000000e+03 2.261675362318920790e+01
1.067000000000000000e+03 2.569500414937744281e+01
1.068000000000000000e+03 2.200793775933508556e+01
1.069000000000000000e+03 3.427800207468882121e+01
1.070000000000000000e+03 3.041903112033120493e+01
1.071000000000000000e+03 1.829975518672247503e+01
1.072000000000000000e+03 2.491368464730276600e+01
1.073000000000000000e+03 1.922778423236478673e+01
1.074000000000000000e+03 1.679549377593360759e+01
1.075000000000000000e+03 1.396140871369305181e+01
1.076000000000000000e+03 1.240693983402494815e+01
1.077000000000000000e+03 2.091358921161957340e+01
1.078000000000000000e+03 3.311356846473008630e+01
1.079000000000000000e+03 3.411843983402489755e+01
1.080000000000000000e+03 3.245918672199159971e+01
1.081000000000000000e+03 2.986696265560162900e+01
1.082000000000000000e+03 2.423627385892134711e+01
1.083000000000000000e+03 2.824153734439850183e+01
1.084000000000000000e+03 2.436930290456353987e+01
1.085000000000000000e+03 2.472458713692908105e+01
1.086000000000000000e+03 2.714789834024896109e+01
1.087000000000000000e+03 2.092956728778390740e+01
1.088000000000000000e+03 1.417609543568396191e+01
1.089000000000000000e+03 2.284218672199124711e+01
1.090000000000000000e+03 3.155973858921139552e+01
1.091000000000000000e+03 2.182077385892118215e+01
1.092000000000000000e+03 2.685784854771751995e+01
1.093000000000000000e+03 2.637477178423236168e+01
1.094000000000000000e+03 2.936806846473056254e+01
1.095000000000000000e+03 2.349633540372646578e+01
1.096000000000000000e+03 1.804435269709539469e+01
1.097000000000000000e+03 2.558907883817482087e+01
1.098000000000000000e+03 3.252469294605813133e+01
1.099000000000000000e+03 2.749991286307091443e+01
1.100000000000000000e+03 2.285430082987545575e+01
1.101000000000000000e+03 2.305537136929466513e+01
1.102000000000000000e+03 2.145787759336061029e+01
1.103000000000000000e+03 3.098220910973086362e+01
1.104000000000000000e+03 1.508333609958371113e+01
1.105000000000000000e+03 7.213526970954882600e+00
1.106000000000000000e+03 4.828647302903920746e+00
1.107000000000000000e+03 1.713032298136750597e+01
1.108000000000000000e+03 5.346067634854730244e+01
1.109000000000000000e+03 4.413156639004134973e+01
1.110000000000000000e+03 5.190269502074688290e+01
1.111000000000000000e+03 4.012058921161754199e+01
1.112000000000000000e+03 3.001478838174320884e+01
1.113000000000000000e+03 1.096299585062309312e+01
1.114000000000000000e+03 2.153396265560226652e+01
1.115000000000000000e+03 4.127683402489710573e+01
1.116000000000000000e+03 4.232490248962709956e+01
1.117000000000000000e+03 4.130879460580916884e+01
1.118000000000000000e+03 4.354064315352535885e+01
1.119000000000000000e+03 2.619590456431506809e+01
1.120000000000000000e+03 3.328039834024885835e+01
1.121000000000000000e+03 3.684068049792548294e+01
1.122000000000000000e+03 4.375064730290446846e+01
1.123000000000000000e+03 4.291571369294631211e+01
1.124000000000000000e+03 3.805944927536226174e+01
1.125000000000000000e+03 3.508891701244800032e+01
1.126000000000000000e+03 3.227570331950244764e+01
1.127000000000000000e+03 3.037312863070541269e+01
1.128000000000000000e+03 3.321899792531134921e+01
1.129000000000000000e+03 4.156143568464605664e+01
1.130000000000000000e+03 5.206730705394136294e+01
1.131000000000000000e+03 5.797040663900406088e+01
1.132000000000000000e+03 4.531692546583835934e+01
1.133000000000000000e+03 3.885786929460592631e+01
1.134000000000000000e+03 4.005517219917006599e+01
1.135000000000000000e+03 4.832844398340292713e+01
1.136000000000000000e+03 4.992820703933752213e+01
1.137000000000000000e+03 4.500990456431549802e+01
1.138000000000000000e+03 3.531886721991662625e+01
1.139000000000000000e+03 3.531400000000165562e+01
1.140000000000000000e+03 6.081987551867059949e+01
1.141000000000000000e+03 5.764724481327799310e+01
1.142000000000000000e+03 4.057125103734522753e+01
1.143000000000000000e+03 5.930427593360924732e+01
1.144000000000000000e+03 5.852201452282192662e+01
1.145000000000000000e+03 5.121260580912844063e+01
1.146000000000000000e+03 4.916960165975105213e+01
1.147000000000000000e+03 4.808223651452297531e+01
1.148000000000000000e+03 5.245141078838166493e+01
1.149000000000000000e+03 6.140222821576799106e+01
1.150000000000000000e+03 6.232113485477197656e+01
1.151000000000000000e+03 5.721365560165997977e+01
1.152000000000000000e+03 5.076792946058085931e+01
1.153000000000000000e+03 5.712199792960608846e+01
1.154000000000000000e+03 5.545165145228248349e+01
1.155000000000000000e+03 4.623598755186712594e+01
1.156000000000000000e+03 4.596582987551916233e+01
1.157000000000000000e+03 5.626525051759796980e+01
1.158000000000000000e+03 3.864720954356903349e+01
1.159000000000000000e+03 1.576237759336131639e+01
1.160000000000000000e+03 1.221036099585151646e+01
1.161000000000000000e+03 2.640461490683477663e+01
1.162000000000000000e+03 2.831897095435758871e+01
1.163000000000000000e+03 4.309944813278090692e+01
1.164000000000000000e+03 5.497207468879621217e+01
1.165000000000000000e+03 4.925353416149073382e+01
1.166000000000000000e+03 4.822723236514534761e+01
1.167000000000000000e+03 4.623924688796704885e+01
1.168000000000000000e+03 5.250218464730232171e+01
1.169000000000000000e+03 5.104726708074523600e+01
1.170000000000000000e+03 5.733231535269894863e+01
1.171000000000000000e+03 6.004985477178678366e+01
1.172000000000000000e+03 3.548623236514509927e+01
1.173000000000000000e+03 4.512649377593318434e+01
1.174000000000000000e+03 3.530278630705420539e+01
1.175000000000000000e+03 3.769472199170110116e+01
1.176000000000000000e+03 4.200053526970969386e+01
1.177000000000000000e+03 5.023167634854824115e+01
1.178000000000000000e+03 4.529824481327854357e+01
1.179000000000000000e+03 4.869452697095443483e+01
1.180000000000000000e+03 4.688516597510302120e+01
1.181000000000000000e+03 3.148465975103915326e+01
1.182000000000000000e+03 2.441642857142869261e+01
1.183000000000000000e+03 2.368615560166090361e+01
1.184000000000000000e+03 3.939832157676202229e+01
1.185000000000000000e+03 2.149070124481369248e+01
1.186000000000000000e+03 2.027411801242240230e+01
1.187000000000000000e+03 2.957368464730325286e+01
1.188000000000000000e+03 2.873896265560192731e+01
1.189000000000000000e+03 2.883475933609959085e+01
1.190000000000000000e+03 1.992487163561016672e+01
1.191000000000000000e+03 2.236525311203280353e+01
1.192000000000000000e+03 1.540023236514623406e+01
1.193000000000000000e+03 4.101526970954368245e+00
1.194000000000000000e+03 1.012058178053897706e+01
1.195000000000000000e+03 1.487139834024876528e+01
1.196000000000000000e+03 1.350488796680501657e+01
1.197000000000000000e+03 8.320423236514052689e+00
1.198000000000000000e+03 6.969710144927175888e-01
1.199000000000000000e+03 5.660290456430292494e-01
1.200000000000000000e+03 4.211568464730266470e+00
1.201000000000000000e+03 0.000000000000000000e+00
1.202000000000000000e+03 0.000000000000000000e+00
1.203000000000000000e+03 0.000000000000000000e+00
1.204000000000000000e+03 0.000000000000000000e+00
1.205000000000000000e+03 0.000000000000000000e+00
1.206000000000000000e+03 0.000000000000000000e+00
1.207000000000000000e+03 0.000000000000000000e+00
1.208000000000000000e+03 0.000000000000000000e+00
1.209000000000000000e+03 0.000000000000000000e+00
1.210000000000000000e+03 0.000000000000000000e+00
1.211000000000000000e+03 0.000000000000000000e+00
1.212000000000000000e+03 0.000000000000000000e+00
1.213000000000000000e+03 0.000000000000000000e+00
1.214000000000000000e+03 0.000000000000000000e+00
1.215000000000000000e+03 0.000000000000000000e+00
1.216000000000000000e+03 0.000000000000000000e+00
1.217000000000000000e+03 0.000000000000000000e+00
1.218000000000000000e+03 0.000000000000000000e+00
1.219000000000000000e+03 0.000000000000000000e+00
1.220000000000000000e+03 0.000000000000000000e+00
1.221000000000000000e+03 0.000000000000000000e+00
1.222000000000000000e+03 0.000000000000000000e+00
1.223000000000000000e+03 0.000000000000000000e+00
1.224000000000000000e+03 0.000000000000000000e+00
1.225000000000000000e+03 0.000000000000000000e+00
1.226000000000000000e+03 0.000000000000000000e+00
1.227000000000000000e+03 0.000000000000000000e+00
1.228000000000000000e+03 0.000000000000000000e+00
1.229000000000000000e+03 0.000000000000000000e+00
1.230000000000000000e+03 0.000000000000000000e+00
1.231000000000000000e+03 0.000000000000000000e+00
1.232000000000000000e+03 0.000000000000000000e+00
1.233000000000000000e+03 0.000000000000000000e+00
1.234000000000000000e+03 0.000000000000000000e+00
1.235000000000000000e+03 0.000000000000000000e+00
1.236000000000000000e+03 0.000000000000000000e+00
1.237000000000000000e+03 0.000000000000000000e+00
1.238000000000000000e+03 0.000000000000000000e+00
1.239000000000000000e+03 0.000000000000000000e+00
1.240000000000000000e+03 0.000000000000000000e+00
1.241000000000000000e+03 0.000000000000000000e+00
1.242000000000000000e+03 0.000000000000000000e+00
1.243000000000000000e+03 0.000000000000000000e+00
1.244000000000000000e+03 0.000000000000000000e+00
1.245000000000000000e+03 0.000000000000000000e+00
1.246000000000000000e+03 0.000000000000000000e+00
1.247000000000000000e+03 0.000000000000000000e+00
1.248000000000000000e+03 0.000000000000000000e+00
1.249000000000000000e+03 0.000000000000000000e+00
1.250000000000000000e+03 0.000000000000000000e+00
1.251000000000000000e+03 0.000000000000000000e+00
1.252000000000000000e+03 0.000000000000000000e+00
1.253000000000000000e+03 0.000000000000000000e+00
1.254000000000000000e+03 0.000000000000000000e+00
1.255000000000000000e+03 0.000000000000000000e+00
1.256000000000000000e+03 0.000000000000000000e+00
1.257000000000000000e+03 0.000000000000000000e+00
1.258000000000000000e+03 0.000000000000000000e+00
1.259000000000000000e+03 0.000000000000000000e+00
1.260000000000000000e+03 0.000000000000000000e+00
1.261000000000000000e+03 0.000000000000000000e+00
1.262000000000000000e+03 0.000000000000000000e+00
1.263000000000000000e+03 0.000000000000000000e+00
1.264000000000000000e+03 0.000000000000000000e+00
1.265000000000000000e+03 0.000000000000000000e+00
1.266000000000000000e+03 0.000000000000000000e+00
1.267000000000000000e+03 0.000000000000000000e+00
1.268000000000000000e+03 0.000000000000000000e+00
1.269000000000000000e+03 0.000000000000000000e+00
1.270000000000000000e+03 0.000000000000000000e+00
1.271000000000000000e+03 0.000000000000000000e+00
1.272000000000000000e+03 0.000000000000000000e+00
1.273000000000000000e+03 0.000000000000000000e+00
1.274000000000000000e+03 0.000000000000000000e+00
1.275000000000000000e+03 0.000000000000000000e+00
1.276000000000000000e+03 0.000000000000000000e+00
1.277000000000000000e+03 0.000000000000000000e+00
1.278000000000000000e+03 0.000000000000000000e+00
1.279000000000000000e+03 0.000000000000000000e+00
1.280000000000000000e+03 0.000000000000000000e+00
1.281000000000000000e+03 0.000000000000000000e+00
1.282000000000000000e+03 0.000000000000000000e+00
1.283000000000000000e+03 0.000000000000000000e+00
1.284000000000000000e+03 0.000000000000000000e+00
1.285000000000000000e+03 0.000000000000000000e+00
1.286000000000000000e+03 0.000000000000000000e+00
1.287000000000000000e+03 0.000000000000000000e+00
1.288000000000000000e+03 0.000000000000000000e+00
1.289000000000000000e+03 0.000000000000000000e+00
1.290000000000000000e+03 0.000000000000000000e+00
1.291000000000000000e+03 0.000000000000000000e+00
1.292000000000000000e+03 0.000000000000000000e+00
1.293000000000000000e+03 0.000000000000000000e+00
1.294000000000000000e+03 0.000000000000000000e+00
1.295000000000000000e+03 0.000000000000000000e+00
1.296000000000000000e+03 0.000000000000000000e+00
1.297000000000000000e+03 0.000000000000000000e+00
1.298000000000000000e+03 0.000000000000000000e+00
1.299000000000000000e+03 0.000000000000000000e+00
1.300000000000000000e+03 0.000000000000000000e+00
1.301000000000000000e+03 0.000000000000000000e+00
1.302000000000000000e+03 0.000000000000000000e+00
1.303000000000000000e+03 0.000000000000000000e+00
1.304000000000000000e+03 0.000000000000000000e+00
1.305000000000000000e+03 0.000000000000000000e+00
1.306000000000000000e+03 0.000000000000000000e+00
1.307000000000000000e+03 0.000000000000000000e+00
1.308000000000000000e+03 0.000000000000000000e+00
1.309000000000000000e+03 0.000000000000000000e+00
1.310000000000000000e+03 0.000000000000000000e+00
1.311000000000000000e+03 0.000000000000000000e+00
1.312000000000000000e+03 0.000000000000000000e+00
1.313000000000000000e+03 0.000000000000000000e+00
1.314000000000000000e+03 0.000000000000000000e+00
1.315000000000000000e+03 0.000000000000000000e+00
1.316000000000000000e+03 0.000000000000000000e+00
1.317000000000000000e+03 0.000000000000000000e+00
1.318000000000000000e+03 0.000000000000000000e+00
1.319000000000000000e+03 0.000000000000000000e+00
1.320000000000000000e+03 0.000000000000000000e+00
1.321000000000000000e+03 0.000000000000000000e+00
1.322000000000000000e+03 0.000000000000000000e+00
1.323000000000000000e+03 0.000000000000000000e+00
1.324000000000000000e+03 0.000000000000000000e+00
1.325000000000000000e+03 0.000000000000000000e+00
1.326000000000000000e+03 0.000000000000000000e+00
1.327000000000000000e+03 0.000000000000000000e+00
1.328000000000000000e+03 0.000000000000000000e+00
1.329000000000000000e+03 0.000000000000000000e+00
1.330000000000000000e+03 0.000000000000000000e+00
1.331000000000000000e+03 0.000000000000000000e+00
1.332000000000000000e+03 0.000000000000000000e+00
1.333000000000000000e+03 0.000000000000000000e+00
1.334000000000000000e+03 0.000000000000000000e+00
1.335000000000000000e+03 0.000000000000000000e+00
1.336000000000000000e+03 0.000000000000000000e+00
1.337000000000000000e+03 0.000000000000000000e+00
1.338000000000000000e+03 0.000000000000000000e+00
1.339000000000000000e+03 0.000000000000000000e+00
1.340000000000000000e+03 0.000000000000000000e+00
1.341000000000000000e+03 0.000000000000000000e+00
1.342000000000000000e+03 0.000000000000000000e+00
1.343000000000000000e+03 0.000000000000000000e+00
1.344000000000000000e+03 0.000000000000000000e+00
1.345000000000000000e+03 0.000000000000000000e+00
1.346000000000000000e+03 0.000000000000000000e+00
1.347000000000000000e+03 0.000000000000000000e+00
1.348000000000000000e+03 0.000000000000000000e+00
1.349000000000000000e+03 0.000000000000000000e+00
1.350000000000000000e+03 0.000000000000000000e+00
1.351000000000000000e+03 0.000000000000000000e+00
1.352000000000000000e+03 0.000000000000000000e+00
1.353000000000000000e+03 0.000000000000000000e+00
1.354000000000000000e+03 0.000000000000000000e+00
1.355000000000000000e+03 0.000000000000000000e+00
1.356000000000000000e+03 0.000000000000000000e+00
1.357000000000000000e+03 0.000000000000000000e+00
1.358000000000000000e+03 0.000000000000000000e+00
1.359000000000000000e+03 0.000000000000000000e+00
1.360000000000000000e+03 0.000000000000000000e+00
1.361000000000000000e+03 0.000000000000000000e+00
1.362000000000000000e+03 0.000000000000000000e+00
1.363000000000000000e+03 0.000000000000000000e+00
1.364000000000000000e+03 0.000000000000000000e+00
1.365000000000000000e+03 0.000000000000000000e+00
1.366000000000000000e+03 0.000000000000000000e+00
1.367000000000000000e+03 0.000000000000000000e+00
1.368000000000000000e+03 0.000000000000000000e+00
1.369000000000000000e+03 0.000000000000000000e+00
1.370000000000000000e+03 0.000000000000000000e+00
1.371000000000000000e+03 0.000000000000000000e+00
1.372000000000000000e+03 0.000000000000000000e+00
1.373000000000000000e+03 0.000000000000000000e+00
1.374000000000000000e+03 0.000000000000000000e+00
1.375000000000000000e+03 0.000000000000000000e+00
1.376000000000000000e+03 0.000000000000000000e+00
1.377000000000000000e+03 0.000000000000000000e+00
1.378000000000000000e+03 0.000000000000000000e+00
1.379000000000000000e+03 0.000000000000000000e+00
1.380000000000000000e+03 0.000000000000000000e+00
1.381000000000000000e+03 0.000000000000000000e+00
1.382000000000000000e+03 0.000000000000000000e+00
1.383000000000000000e+03 0.000000000000000000e+00
1.384000000000000000e+03 0.000000000000000000e+00
1.385000000000000000e+03 0.000000000000000000e+00
1.386000000000000000e+03 0.000000000000000000e+00
1.387000000000000000e+03 0.000000000000000000e+00
1.388000000000000000e+03 0.000000000000000000e+00
1.389000000000000000e+03 0.000000000000000000e+00
1.390000000000000000e+03 0.000000000000000000e+00
1.391000000000000000e+03 0.000000000000000000e+00
1.392000000000000000e+03 0.000000000000000000e+00
1.393000000000000000e+03 0.000000000000000000e+00
1.394000000000000000e+03 0.000000000000000000e+00
1.395000000000000000e+03 0.000000000000000000e+00
1.396000000000000000e+03 0.000000000000000000e+00
1.397000000000000000e+03 0.000000000000000000e+00
1.398000000000000000e+03 0.000000000000000000e+00
1.399000000000000000e+03 0.000000000000000000e+00
1.400000000000000000e+03 0.000000000000000000e+00
1.401000000000000000e+03 0.000000000000000000e+00
1.402000000000000000e+03 0.000000000000000000e+00
1.403000000000000000e+03 0.000000000000000000e+00
1.404000000000000000e+03 0.000000000000000000e+00
1.405000000000000000e+03 0.000000000000000000e+00
1.406000000000000000e+03 0.000000000000000000e+00
1.407000000000000000e+03 0.000000000000000000e+00
1.408000000000000000e+03 0.000000000000000000e+00
1.409000000000000000e+03 0.000000000000000000e+00
1.410000000000000000e+03 0.000000000000000000e+00
1.411000000000000000e+03 0.000000000000000000e+00
1.412000000000000000e+03 0.000000000000000000e+00
1.413000000000000000e+03 0.000000000000000000e+00
1.414000000000000000e+03 0.000000000000000000e+00
1.415000000000000000e+03 0.000000000000000000e+00
1.416000000000000000e+03 0.000000000000000000e+00
1.417000000000000000e+03 0.000000000000000000e+00
1.418000000000000000e+03 0.000000000000000000e+00
1.419000000000000000e+03 0.000000000000000000e+00
1.420000000000000000e+03 0.000000000000000000e+00
1.421000000000000000e+03 0.000000000000000000e+00
1.422000000000000000e+03 0.000000000000000000e+00
1.423000000000000000e+03 0.000000000000000000e+00
1.424000000000000000e+03 0.000000000000000000e+00
1.425000000000000000e+03 0.000000000000000000e+00
1.426000000000000000e+03 0.000000000000000000e+00
1.427000000000000000e+03 0.000000000000000000e+00
1.428000000000000000e+03 0.000000000000000000e+00
1.429000000000000000e+03 0.000000000000000000e+00
1.430000000000000000e+03 0.000000000000000000e+00
1.431000000000000000e+03 0.000000000000000000e+00
1.432000000000000000e+03 0.000000000000000000e+00
1.433000000000000000e+03 0.000000000000000000e+00
1.434000000000000000e+03 0.000000000000000000e+00
1.435000000000000000e+03 0.000000000000000000e+00
1.436000000000000000e+03 0.000000000000000000e+00
1.437000000000000000e+03 0.000000000000000000e+00
1.438000000000000000e+03 0.000000000000000000e+00
1.439000000000000000e+03 0.000000000000000000e+00
1.440000000000000000e+03 0.000000000000000000e+00
1.441000000000000000e+03 0.000000000000000000e+00
1.442000000000000000e+03 0.000000000000000000e+00
1.443000000000000000e+03 0.000000000000000000e+00
1.444000000000000000e+03 0.000000000000000000e+00
1.445000000000000000e+03 0.000000000000000000e+00
1.446000000000000000e+03 0.000000000000000000e+00
1.447000000000000000e+03 0.000000000000000000e+00
1.448000000000000000e+03 0.000000000000000000e+00
1.449000000000000000e+03 0.000000000000000000e+00
1.450000000000000000e+03 0.000000000000000000e+00
1.451000000000000000e+03 0.000000000000000000e+00
1.452000000000000000e+03 0.000000000000000000e+00
1.453000000000000000e+03 0.000000000000000000e+00
1.454000000000000000e+03 0.000000000000000000e+00
1.455000000000000000e+03 0.000000000000000000e+00
1.456000000000000000e+03 0.000000000000000000e+00
1.457000000000000000e+03 0.000000000000000000e+00
1.458000000000000000e+03 0.000000000000000000e+00
1.459000000000000000e+03 0.000000000000000000e+00
1.460000000000000000e+03 0.000000000000000000e+00
1.461000000000000000e+03 0.000000000000000000e+00
1.462000000000000000e+03 0.000000000000000000e+00
1.463000000000000000e+03 0.000000000000000000e+00
1.464000000000000000e+03 0.000000000000000000e+00
1.465000000000000000e+03 0.000000000000000000e+00
1.466000000000000000e+03 0.000000000000000000e+00
1.467000000000000000e+03 0.000000000000000000e+00
1.468000000000000000e+03 0.000000000000000000e+00
1.469000000000000000e+03 0.000000000000000000e+00
1.470000000000000000e+03 0.000000000000000000e+00
1.471000000000000000e+03 0.000000000000000000e+00
1.472000000000000000e+03 0.000000000000000000e+00
1.473000000000000000e+03 0.000000000000000000e+00
1.474000000000000000e+03 0.000000000000000000e+00
1.475000000000000000e+03 0.000000000000000000e+00
1.476000000000000000e+03 0.000000000000000000e+00
1.477000000000000000e+03 0.000000000000000000e+00
1.478000000000000000e+03 0.000000000000000000e+00
1.479000000000000000e+03 0.000000000000000000e+00
1.480000000000000000e+03 0.000000000000000000e+00
1.481000000000000000e+03 0.000000000000000000e+00
1.482000000000000000e+03 0.000000000000000000e+00
1.483000000000000000e+03 0.000000000000000000e+00
1.484000000000000000e+03 0.000000000000000000e+00
1.485000000000000000e+03 0.000000000000000000e+00
1.486000000000000000e+03 0.000000000000000000e+00
1.487000000000000000e+03 0.000000000000000000e+00
1.488000000000000000e+03 0.000000000000000000e+00
1.489000000000000000e+03 0.000000000000000000e+00
1.490000000000000000e+03 0.000000000000000000e+00
1.491000000000000000e+03 0.000000000000000000e+00
1.492000000000000000e+03 0.000000000000000000e+00
1.493000000000000000e+03 0.000000000000000000e+00
1.494000000000000000e+03 0.000000000000000000e+00
1.495000000000000000e+03 0.000000000000000000e+00
1.496000000000000000e+03 0.000000000000000000e+00
1.497000000000000000e+03 0.000000000000000000e+00
1.498000000000000000e+03 0.000000000000000000e+00
1.499000000000000000e+03 0.000000000000000000e+00
1.500000000000000000e+03 0.000000000000000000e+00
