1.010000000000000000e+02 0.000000000000000000e+00
1.020000000000000000e+02 0.000000000000000000e+00
1.030000000000000000e+02 0.000000000000000000e+00
1.040000000000000000e+02 0.000000000000000000e+00
1.050000000000000000e+02 0.000000000000000000e+00
1.060000000000000000e+02 0.000000000000000000e+00
1.070000000000000000e+02 0.000000000000000000e+00
1.080000000000000000e+02 0.000000000000000000e+00
1.090000000000000000e+02 0.000000000000000000e+00
1.100000000000000000e+02 0.000000000000000000e+00
1.110000000000000000e+02 0.000000000000000000e+00
1.120000000000000000e+02 0.000000000000000000e+00
1.130000000000000000e+02 0.000000000000000000e+00
1.140000000000000000e+02 0.000000000000000000e+00
1.150000000000000000e+02 0.000000000000000000e+00
1.160000000000000000e+02 0.000000000000000000e+00
1.170000000000000000e+02 0.000000000000000000e+00
1.180000000000000000e+02 0.000000000000000000e+00
1.190000000000000000e+02 0.000000000000000000e+00
1.200000000000000000e+02 0.000000000000000000e+00
1.210000000000000000e+02 0.000000000000000000e+00
1.220000000000000000e+02 0.000000000000000000e+00
1.230000000000000000e+02 0.000000000000000000e+00
1.240000000000000000e+02 0.000000000000000000e+00
1.250000000000000000e+02 0.000000000000000000e+00
1.260000000000000000e+02 0.000000000000000000e+00
1.270000000000000000e+02 0.000000000000000000e+00
1.280000000000000000e+02 0.000000000000000000e+00
1.290000000000000000e+02 0.000000000000000000e+00
1.300000000000000000e+02 0.000000000000000000e+00
1.310000000000000000e+02 0.000000000000000000e+00
1.320000000000000000e+02 0.000000000000000000e+00
1.330000000000000000e+02 0.000000000000000000e+00
1.340000000000000000e+02 0.000000000000000000e+00
1.350000000000000000e+02 0.000000000000000000e+00
1.360000000000000000e+02 0.000000000000000000e+00
1.370000000000000000e+02 0.000000000000000000e+00
1.380000000000000000e+02 0.000000000000000000e+00
1.390000000000000000e+02 0.000000000000000000e+00
1.400000000000000000e+02 0.000000000000000000e+00
1.410000000000000000e+02 0.000000000000000000e+00
1.420000000000000000e+02 0.000000000000000000e+00
1.430000000000000000e+02 0.000000000000000000e+00
1.440000000000000000e+02 0.000000000000000000e+00
1.450000000000000000e+02 0.000000000000000000e+00
1.460000000000000000e+02 0.000000000000000000e+00
1.470000000000000000e+02 0.000000000000000000e+00
1.480000000000000000e+02 0.000000000000000000e+00
1.490000000000000000e+02 0.000000000000000000e+00
1.500000000000000000e+02 0.000000000000000000e+00
1.510000000000000000e+02 1.345635278515117994e+00
1.520000000000000000e+02 1.325393217797135037e+00
1.530000000000000000e+02 1.274951539929459754e+00
1.540000000000000000e+02 7.493410790292467372e-01
1.550000000000000000e+02 5.265578338518942525e-01
1.560000000000000000e+02 2.474363347158849979e-01
1.570000000000000000e+02 3.221440232316957197e-01
1.580000000000000000e+02 9.392452428500396022e-02
1.590000000000000000e+02 2.458781587100800081e-02
1.600000000000000000e+02 3.293085743621650963e-01
1.610000000000000000e+02 2.510121447832364683e-01
1.620000000000000000e+02 4.525749955163789473e-02
1.630000000000000000e+02 4.087631638664170897e-01
1.640000000000000000e+02 1.261017628500305632e+00
1.650000000000000000e+02 1.888891817050410094e+00
1.660000000000000000e+02 2.207977278365485407e+00
1.670000000000000000e+02 2.211449667565323907e+00
1.680000000000000000e+02 2.090987249325845010e+00
1.690000000000000000e+02 6.825504846297384631e+00
1.700000000000000000e+02 9.948236079635016438e+00
1.710000000000000000e+02 1.100090007259904823e+01
1.720000000000000000e+02 1.246421839244969476e+01
1.730000000000000000e+02 1.348196646204893057e+01
1.740000000000000000e+02 1.544289991288117214e+01
1.750000000000000000e+02 1.825484521261150661e+01
1.760000000000000000e+02 2.146929671920364058e+01
1.770000000000000000e+02 2.496524358017005696e+01
1.780000000000000000e+02 2.857711892968268685e+01
1.790000000000000000e+02 3.354129493466088974e+01
1.800000000000000000e+02 3.883008154117403166e+01
1.810000000000000000e+02 4.223689183533800673e+01
1.820000000000000000e+02 4.758104954158883970e+01
1.830000000000000000e+02 5.471136688238961199e+01
1.840000000000000000e+02 6.128334963915389011e+01
1.850000000000000000e+02 6.621611768927604658e+01
1.860000000000000000e+02 7.281141102260933451e+01
1.870000000000000000e+02 7.803727897552886361e+01
1.880000000000000000e+02 8.364251527691352806e+01
1.890000000000000000e+02 9.069421706699853303e+01
1.900000000000000000e+02 9.743838289506422257e+01
1.910000000000000000e+02 1.031320210744659391e+02
1.920000000000000000e+02 1.099864405724953826e+02
1.930000000000000000e+02 1.170011639701306763e+02
1.940000000000000000e+02 1.216672647376062741e+02
1.950000000000000000e+02 1.249635694254303928e+02
1.960000000000000000e+02 1.297872977598009072e+02
1.970000000000000000e+02 1.343278449906658238e+02
1.980000000000000000e+02 1.360877517942335544e+02
1.990000000000000000e+02 1.375408792989006486e+02
2.000000000000000000e+02 1.386338878033602953e+02
2.010000000000000000e+02 1.366288694110327526e+02
2.020000000000000000e+02 1.298853233976354034e+02
2.030000000000000000e+02 1.195928732628086522e+02
2.040000000000000000e+02 1.117752670676067481e+02
2.050000000000000000e+02 1.041417712715203976e+02
2.060000000000000000e+02 9.500427658369633832e+01
2.070000000000000000e+02 8.471634803982584572e+01
2.080000000000000000e+02 7.838282426052677465e+01
2.090000000000000000e+02 6.968925341215508240e+01
2.100000000000000000e+02 6.128354616054761550e+01
2.110000000000000000e+02 5.533419905413818185e+01
2.120000000000000000e+02 5.042256249948142965e+01
2.130000000000000000e+02 4.373425222360501152e+01
2.140000000000000000e+02 3.846284030906450369e+01
2.150000000000000000e+02 3.446883447739529771e+01
2.160000000000000000e+02 3.025014836341012980e+01
2.170000000000000000e+02 2.758901838207838253e+01
2.180000000000000000e+02 2.457550780588967143e+01
2.190000000000000000e+02 2.193204123003527073e+01
2.200000000000000000e+02 1.951888172370881591e+01
2.210000000000000000e+02 1.541833079029244402e+01
2.220000000000000000e+02 1.415587872018253357e+01
2.230000000000000000e+02 1.330262787388508805e+01
2.240000000000000000e+02 1.200417528313629134e+01
2.250000000000000000e+02 1.058386404480398646e+01
2.260000000000000000e+02 8.560362832019897894e+00
2.270000000000000000e+02 6.777913321302635907e+00
2.280000000000000000e+02 5.442082683675593557e+00
2.290000000000000000e+02 4.437981614267932251e+00
2.300000000000000000e+02 3.532399024891096584e+00
2.310000000000000000e+02 3.598354513586393466e+00
2.320000000000000000e+02 3.727452593114890078e+00
2.330000000000000000e+02 3.428532348060575607e+00
2.340000000000000000e+02 2.623247018046037216e+00
2.350000000000000000e+02 1.542465431860608138e+00
2.360000000000000000e+02 8.175325753992969124e-01
2.370000000000000000e+02 3.195341304437908647e-01
2.380000000000000000e+02 5.922669956440518302e-01
2.390000000000000000e+02 5.798672302426908232e-01
2.400000000000000000e+02 3.161969717959355886e-01
2.410000000000000000e+02 2.180318192343992378e-01
2.420000000000000000e+02 6.974360356772504321e-01
2.430000000000000000e+02 1.216615900041471965e-01
2.440000000000000000e+02 6.245362638456748439e-01
2.450000000000000000e+02 4.617131673926612723e-01
2.460000000000000000e+02 2.284559587222656785e-01
2.470000000000000000e+02 6.698509802945434854e-01
2.480000000000000000e+02 3.870761960174223248e-01
2.490000000000000000e+02 3.418320547604203896e-01
2.500000000000000000e+02 2.403768633063727012e-01
2.510000000000000000e+02 2.542633401078462363e-01
2.520000000000000000e+02 5.873869043766823950e-01
2.530000000000000000e+02 3.150273802115731714e-01
2.540000000000000000e+02 2.932379941932746759e-01
2.550000000000000000e+02 2.814894777017127314e-01
2.560000000000000000e+02 7.362719742791778987e-01
2.570000000000000000e+02 1.726716475528822237e+00
2.580000000000000000e+02 9.889348002489199985e-01
2.590000000000000000e+02 2.139063128811418579e+00
2.600000000000000000e+02 3.979597484546778308e+00
2.610000000000000000e+02 4.450538788010786284e+00
2.620000000000000000e+02 4.198113663970131526e+00
2.630000000000000000e+02 4.161527961418794774e+00
2.640000000000000000e+02 4.331964816842980959e+00
2.650000000000000000e+02 4.768497636589922095e+00
2.660000000000000000e+02 5.734081929060389271e+00
2.670000000000000000e+02 7.217017990043581577e+00
2.680000000000000000e+02 7.253383578718127112e+00
2.690000000000000000e+02 7.848555926363777857e+00
2.700000000000000000e+02 9.702517194980313064e+00
2.710000000000000000e+02 9.742945801908319936e+00
2.720000000000000000e+02 9.645678930927195083e+00
2.730000000000000000e+02 1.002306608046452574e+01
2.740000000000000000e+02 1.041567681601327422e+01
2.750000000000000000e+02 1.034593913503422158e+01
2.760000000000000000e+02 1.082472120696806606e+01
2.770000000000000000e+02 1.126019447417548669e+01
2.780000000000000000e+02 1.128602745488487713e+01
2.790000000000000000e+02 1.116846056615512239e+01
2.800000000000000000e+02 1.129242354905622747e+01
2.810000000000000000e+02 1.122506190416926941e+01
2.820000000000000000e+02 1.161563099543756827e+01
2.830000000000000000e+02 1.148823093341630219e+01
2.840000000000000000e+02 1.162247843600911601e+01
2.850000000000000000e+02 1.219318317710492927e+01
2.860000000000000000e+02 1.141875517734913892e+01
2.870000000000000000e+02 1.138199978220284869e+01
2.880000000000000000e+02 1.135476885915786660e+01
2.890000000000000000e+02 1.095751334163037249e+01
2.900000000000000000e+02 1.075198681459976235e+01
2.910000000000000000e+02 1.023620543248288683e+01
2.920000000000000000e+02 9.917888979879702305e+00
2.930000000000000000e+02 9.080600018668315343e+00
2.940000000000000000e+02 8.240915119062430350e+00
2.950000000000000000e+02 7.870805190416925612e+00
2.960000000000000000e+02 6.785016584940851025e+00
2.970000000000000000e+02 5.768578594275037830e+00
2.980000000000000000e+02 5.605818537232937437e+00
2.990000000000000000e+02 5.134862455092316758e+00
3.000000000000000000e+02 4.898654170504046057e+00
3.010000000000000000e+02 4.876477143094148481e+00
3.020000000000000000e+02 4.377456218211990269e+00
3.030000000000000000e+02 4.130661895872234979e+00
3.040000000000000000e+02 3.900194587722952022e+00
3.050000000000000000e+02 3.628762196017426334e+00
3.060000000000000000e+02 3.388936125907494379e+00
3.070000000000000000e+02 3.106489297594359655e+00
3.080000000000000000e+02 2.686229290188758334e+00
3.090000000000000000e+02 2.535691915992531964e+00
3.100000000000000000e+02 2.524354034425548843e+00
3.110000000000000000e+02 2.239583474797755880e+00
3.120000000000000000e+02 1.545496706077574611e+00
3.130000000000000000e+02 2.169488437370396650e+00
3.140000000000000000e+02 1.532005321095218475e+00
3.150000000000000000e+02 1.669994976975736511e+00
3.160000000000000000e+02 1.864938508193353162e+00
3.170000000000000000e+02 1.832387612528522114e+00
3.180000000000000000e+02 1.985071361128401435e+00
3.190000000000000000e+02 1.943002206596129655e+00
3.200000000000000000e+02 2.126407598216148997e+00
3.210000000000000000e+02 1.888457354075921746e+00
3.220000000000000000e+02 2.069475753370662030e+00
3.230000000000000000e+02 2.190436983198499554e+00
3.240000000000000000e+02 1.753454434971989162e+00
3.250000000000000000e+02 2.333646739680564242e+00
3.260000000000000000e+02 2.393221238954566843e+00
3.270000000000000000e+02 1.906890989213862575e+00
3.280000000000000000e+02 2.081730674548855742e+00
3.290000000000000000e+02 2.358003323309828314e+00
3.300000000000000000e+02 2.299569736154306820e+00
3.310000000000000000e+02 2.552136582036919954e+00
3.320000000000000000e+02 2.854500773952715953e+00
3.330000000000000000e+02 2.909523827629103998e+00
3.340000000000000000e+02 2.654489255756077970e+00
3.350000000000000000e+02 3.237591005599337102e+00
3.360000000000000000e+02 3.078768072391613764e+00
3.370000000000000000e+02 3.651342446795269314e+00
3.380000000000000000e+02 3.391554306782824657e+00
3.390000000000000000e+02 3.906303082348055344e+00
3.400000000000000000e+02 4.541346485483208184e+00
3.410000000000000000e+02 5.120294479775989060e+00
3.420000000000000000e+02 6.737755966397013907e+00
3.430000000000000000e+02 6.433782666459223698e+00
3.440000000000000000e+02 6.662633300145226478e+00
3.450000000000000000e+02 8.101153747147900930e+00
3.460000000000000000e+02 8.503417526446794383e+00
3.470000000000000000e+02 8.805601175482275167e+00
3.480000000000000000e+02 9.530765519809184738e+00
3.490000000000000000e+02 9.767840666666673499e+00
3.500000000000000000e+02 9.984755952706883875e+00
3.510000000000000000e+02 1.162321148102056334e+01
3.520000000000000000e+02 1.277297131922836648e+01
3.530000000000000000e+02 1.298589231487243367e+01
3.540000000000000000e+02 1.308939687266693497e+01
3.550000000000000000e+02 1.347003014727235026e+01
3.560000000000000000e+02 1.386923189794647904e+01
3.570000000000000000e+02 1.464934253214433468e+01
3.580000000000000000e+02 1.473677891723708377e+01
3.590000000000000000e+02 1.408962678904791410e+01
3.600000000000000000e+02 1.348131094151804277e+01
3.610000000000000000e+02 1.381687811449907421e+01
3.620000000000000000e+02 1.437859027996681505e+01
3.630000000000000000e+02 1.336193007674761901e+01
3.640000000000000000e+02 1.199688674133995470e+01
3.650000000000000000e+02 1.179291280796350172e+01
3.660000000000000000e+02 1.169919676415682019e+01
3.670000000000000000e+02 1.008495887782622091e+01
3.680000000000000000e+02 8.391630180667915440e+00
3.690000000000000000e+02 7.378113125492637536e+00
3.700000000000000000e+02 7.089260480398266395e+00
3.710000000000000000e+02 6.354967439950214292e+00
3.720000000000000000e+02 5.279741182327319038e+00
3.730000000000000000e+02 4.632556188964945143e+00
3.740000000000000000e+02 4.057606940053913647e+00
3.750000000000000000e+02 2.931215358431861873e+00
3.760000000000000000e+02 2.825307022816842206e+00
3.770000000000000000e+02 2.174187623936942870e+00
3.780000000000000000e+02 1.755546783654835297e+00
3.790000000000000000e+02 1.378647263845663717e+00
3.800000000000000000e+02 1.333411046048543991e+00
3.810000000000000000e+02 1.095533051773483146e+00
3.820000000000000000e+02 1.050910992119451715e+00
3.830000000000000000e+02 8.101790762912238764e-01
3.840000000000000000e+02 4.268031004977184684e-01
3.850000000000000000e+02 5.802810675171138355e-01
3.860000000000000000e+02 5.620062717278572206e-01
3.870000000000000000e+02 2.793344906677712736e-01
3.880000000000000000e+02 6.084792151006008787e-01
3.890000000000000000e+02 5.169417554449283747e-01
3.900000000000000000e+02 2.139271775655372798e-01
3.910000000000000000e+02 4.071497917444557024e-01
3.920000000000000000e+02 1.984253331259087649e-01
3.930000000000000000e+02 6.518356068021772254e-01
3.940000000000000000e+02 4.120106938394421658e-01
3.950000000000000000e+02 3.578886083799963092e-01
3.960000000000000000e+02 9.580169368304906896e-02
3.970000000000000000e+02 3.749629643630147391e-01
3.980000000000000000e+02 4.119233167392510886e-01
3.990000000000000000e+02 1.635224275046640030e-01
4.000000000000000000e+02 2.267764198299042078e-01
4.010000000000000000e+02 2.637157193528212318e-01
4.020000000000000000e+02 5.156141808276348826e-02
4.030000000000000000e+02 4.131402838021187851e-02
4.040000000000000000e+02 3.179010671146979550e-01
4.050000000000000000e+02 4.000849394316552399e-01
4.060000000000000000e+02 8.722932054926356427e-02
4.070000000000000000e+02 2.795923403858110445e-01
4.080000000000000000e+02 6.812243223397677072e-01
4.090000000000000000e+02 4.818460638739083812e-01
4.100000000000000000e+02 2.468676330636811467e-01
4.110000000000000000e+02 2.254745276326352577e-01
4.120000000000000000e+02 1.364359814678577365e-01
4.130000000000000000e+02 1.884481326552475688e-01
4.140000000000000000e+02 6.856598008711778380e-01
4.150000000000000000e+02 1.041801360431358736e+00
4.160000000000000000e+02 1.216845199336236583e+00
4.170000000000000000e+02 1.166744049159927910e+00
4.180000000000000000e+02 4.601793421816693375e-01
4.190000000000000000e+02 5.125783305206416118e-02
4.200000000000000000e+02 1.303358362372941670e+00
4.210000000000000000e+02 2.642712464011619744e+00
4.220000000000000000e+02 1.937300619166159255e+00
4.230000000000000000e+02 3.253693205144162270e+00
4.240000000000000000e+02 3.279263131300585776e+00
4.250000000000000000e+02 3.971480423148729955e+00
4.260000000000000000e+02 4.706068973864336868e+00
4.270000000000000000e+02 4.831111345986308869e+00
4.280000000000000000e+02 5.316226928023232823e+00
4.290000000000000000e+02 4.757763852727660669e+00
4.300000000000000000e+02 4.653893015764369423e+00
4.310000000000000000e+02 4.537835141879309475e+00
4.320000000000000000e+02 4.805447528935905765e+00
4.330000000000000000e+02 4.832148294337278216e+00
4.340000000000000000e+02 4.094971087326300996e+00
4.350000000000000000e+02 1.933523910806882018e+00
4.360000000000000000e+02 1.227603543248289464e+00
4.370000000000000000e+02 6.056411883036091348e-01
4.380000000000000000e+02 6.521532049367433359e-01
4.390000000000000000e+02 9.678316121136678607e-01
4.400000000000000000e+02 7.341520134798822372e-01
4.410000000000000000e+02 6.103432003733616495e-01
4.420000000000000000e+02 1.969644922215308125e-01
4.430000000000000000e+02 1.439693849025319716e-01
4.440000000000000000e+02 2.866117875959406369e-01
4.450000000000000000e+02 6.613008643435031031e-01
4.460000000000000000e+02 2.849678367759591602e-01
4.470000000000000000e+02 1.385782702758796558e-01
4.480000000000000000e+02 1.158642511926776669e-01
4.490000000000000000e+02 6.174287710018651065e-01
4.500000000000000000e+02 5.622689016801595274e-01
4.510000000000000000e+02 6.125325113047002112e-01
4.520000000000000000e+02 7.104646677037885771e-01
4.530000000000000000e+02 5.292480661688446775e-01
4.540000000000000000e+02 6.262923061605418784e-01
4.550000000000000000e+02 7.684736459241064965e-01
4.560000000000000000e+02 1.652159386019500298e+00
4.570000000000000000e+02 1.392810697573113377e+00
4.580000000000000000e+02 1.648539978012873108e+00
4.590000000000000000e+02 1.833186158680769173e+00
4.600000000000000000e+02 1.917895494710633253e+00
4.610000000000000000e+02 2.723002208877804087e+00
4.620000000000000000e+02 3.280359748444663825e+00
4.630000000000000000e+02 4.452784463596756837e+00
4.640000000000000000e+02 4.089660482265068175e+00
4.650000000000000000e+02 5.043699191206962418e+00
4.660000000000000000e+02 4.695591660651315280e+00
4.670000000000000000e+02 4.949173738436009273e+00
4.680000000000000000e+02 5.346768204272087210e+00
4.690000000000000000e+02 5.782247601120102054e+00
4.700000000000000000e+02 6.160367628707736465e+00
4.710000000000000000e+02 6.163972532144335936e+00
4.720000000000000000e+02 5.874955968678692741e+00
4.730000000000000000e+02 5.498853196017419620e+00
4.740000000000000000e+02 5.179712759435926017e+00
4.750000000000000000e+02 4.604661344741731277e+00
4.760000000000000000e+02 3.819119095415885123e+00
4.770000000000000000e+02 3.508442518357209217e+00
4.780000000000000000e+02 2.105277621033012636e+00
4.790000000000000000e+02 1.321993151835719749e+00
4.800000000000000000e+02 1.270959001451979598e+00
4.810000000000000000e+02 1.309678277535782920e+00
4.820000000000000000e+02 1.116819320058078269e+00
4.830000000000000000e+02 8.392849757311763303e-01
4.840000000000000000e+02 1.516892739887983232e+00
4.850000000000000000e+02 1.495545279610029255e+00
4.860000000000000000e+02 1.856711088985572022e-01
4.870000000000000000e+02 9.296806431798329551e-02
4.880000000000000000e+02 4.961009533291890761e-01
4.890000000000000000e+02 3.526914140219925553e-01
4.900000000000000000e+02 5.203907119452519936e-01
4.910000000000000000e+02 2.306754364239719801e-01
4.920000000000000000e+02 4.128339346608440596e-01
4.930000000000000000e+02 1.303926885109895073e-01
4.940000000000000000e+02 4.010654691972655450e-01
4.950000000000000000e+02 2.026422753092587681e-01
4.960000000000000000e+02 4.082113614682723046e-01
4.970000000000000000e+02 5.525719900435539511e-01
4.980000000000000000e+02 1.346463444720999991e+00
4.990000000000000000e+02 1.944138686022396811e+00
5.000000000000000000e+02 2.727171056627254675e+00
5.010000000000000000e+02 3.259448393901678287e+00
5.020000000000000000e+02 3.737110134411961049e+00
5.030000000000000000e+02 4.660034628085463204e+00
5.040000000000000000e+02 5.130718786395689790e+00
5.050000000000000000e+02 5.679209822236058081e+00
5.060000000000000000e+02 5.595503550093334333e+00
5.070000000000000000e+02 6.083700610949810184e+00
5.080000000000000000e+02 7.828335040448003213e+00
5.090000000000000000e+02 8.764419331259086121e+00
5.100000000000000000e+02 8.778499197635834861e+00
5.110000000000000000e+02 8.797609098942125172e+00
5.120000000000000000e+02 8.942539998548017621e+00
5.130000000000000000e+02 9.968162982579844567e+00
5.140000000000000000e+02 1.241814758348889391e+01
5.150000000000000000e+02 1.312465759800870835e+01
5.160000000000000000e+02 1.316428627255756112e+01
5.170000000000000000e+02 1.390083893797968173e+01
5.180000000000000000e+02 1.500765827042720169e+01
5.190000000000000000e+02 1.565744945032150781e+01
5.200000000000000000e+02 1.650524690728063604e+01
5.210000000000000000e+02 1.756424120282039780e+01
5.220000000000000000e+02 1.829184452395768190e+01
5.230000000000000000e+02 1.987101026550504201e+01
5.240000000000000000e+02 2.246977108253834388e+01
5.250000000000000000e+02 2.479167826384564677e+01
5.260000000000000000e+02 2.851462599253259356e+01
5.270000000000000000e+02 3.076958888428037042e+01
5.280000000000000000e+02 3.475415145198084588e+01
5.290000000000000000e+02 4.065495317361531136e+01
5.300000000000000000e+02 4.640080023024270162e+01
5.310000000000000000e+02 5.296914114913919036e+01
5.320000000000000000e+02 6.100275201825347438e+01
5.330000000000000000e+02 6.726517581207211549e+01
5.340000000000000000e+02 7.420999492221552885e+01
5.350000000000000000e+02 8.347222398257640918e+01
5.360000000000000000e+02 9.196625206388701201e+01
5.370000000000000000e+02 1.018916831086685022e+02
5.380000000000000000e+02 1.103383469404687105e+02
5.390000000000000000e+02 1.188365915370253276e+02
5.400000000000000000e+02 1.287475751555370209e+02
5.410000000000000000e+02 1.397037206388714310e+02
5.420000000000000000e+02 1.503638379381868333e+02
5.430000000000000000e+02 1.606992295374403454e+02
5.440000000000000000e+02 1.681305133789670094e+02
5.450000000000000000e+02 1.724478141257000630e+02
5.460000000000000000e+02 1.732435400331881681e+02
5.470000000000000000e+02 1.682866206803566058e+02
5.480000000000000000e+02 1.550591311138765036e+02
5.490000000000000000e+02 1.367118478531428138e+02
5.500000000000000000e+02 1.160284094378765332e+02
5.510000000000000000e+02 9.624381627048394705e+01
5.520000000000000000e+02 7.974939565650311124e+01
5.530000000000000000e+02 6.516103974486662764e+01
5.540000000000000000e+02 5.384334292055631010e+01
5.550000000000000000e+02 4.488593226094191380e+01
5.560000000000000000e+02 3.869077403443281327e+01
5.570000000000000000e+02 3.422454771464139611e+01
5.580000000000000000e+02 2.871942934038585449e+01
5.590000000000000000e+02 2.431410938394528287e+01
5.600000000000000000e+02 2.039733199502282446e+01
5.610000000000000000e+02 1.786488523335405532e+01
5.620000000000000000e+02 1.593486294959549276e+01
5.630000000000000000e+02 1.337429063044390531e+01
5.640000000000000000e+02 1.079694512341831469e+01
5.650000000000000000e+02 1.011517106202031968e+01
5.660000000000000000e+02 9.490913189755319834e+00
5.670000000000000000e+02 8.020925540136975229e+00
5.680000000000000000e+02 6.641100239369466252e+00
5.690000000000000000e+02 6.118119221899658733e+00
5.700000000000000000e+02 3.726496488073041569e+00
5.710000000000000000e+02 3.557531685127573784e+00
5.720000000000000000e+02 2.052475555071598734e+00
5.730000000000000000e+02 7.493449693009661683e-01
5.740000000000000000e+02 9.331369220078976623e-01
5.750000000000000000e+02 1.168382420659600518e-01
5.760000000000000000e+02 1.732769290603606571e-01
5.770000000000000000e+02 3.256284561294322533e-01
5.780000000000000000e+02 4.364035179407061982e-01
5.790000000000000000e+02 3.664893737813700869e-01
5.800000000000000000e+02 5.586534822650935928e-01
5.810000000000000000e+02 2.662103133733900728e-01
5.820000000000000000e+02 1.702260199128636520e-01
5.830000000000000000e+02 4.961721864371793633e-01
5.840000000000000000e+02 2.347436955619940924e-01
5.850000000000000000e+02 4.472779813650865632e-01
5.860000000000000000e+02 2.014271270703232308e-01
5.870000000000000000e+02 6.345169626710862598e-01
5.880000000000000000e+02 1.890032922252661285e-01
5.890000000000000000e+02 2.070055364032356571e-01
5.900000000000000000e+02 2.628846188303629594e-01
5.910000000000000000e+02 6.073589265712473484e-01
5.920000000000000000e+02 1.189002750406502190e-01
5.930000000000000000e+02 4.902281779344378476e-01
5.940000000000000000e+02 7.053938479568222508e-01
5.950000000000000000e+02 8.024715034225521348e-01
5.960000000000000000e+02 1.069647559933641690e+00
5.970000000000000000e+02 4.793512634308567666e-01
5.980000000000000000e+02 2.636223495125007421e-01
5.990000000000000000e+02 1.210239781995421815e+00
6.000000000000000000e+02 1.266107538270074384e+00
6.010000000000000000e+02 1.249960988176719523e+00
6.020000000000000000e+02 1.707344913295993916e+00
6.030000000000000000e+02 2.325501733665213067e+00
6.040000000000000000e+02 2.481086411325450491e+00
6.050000000000000000e+02 2.704735270068453268e+00
6.060000000000000000e+02 2.119361222567915704e+00
6.070000000000000000e+02 2.380315916614826666e+00
6.080000000000000000e+02 3.543315996888648733e+00
6.090000000000000000e+02 4.197129624144393389e+00
6.100000000000000000e+02 5.035890835338024729e+00
6.110000000000000000e+02 4.552410772038991027e+00
6.120000000000000000e+02 5.436501519394372650e+00
6.130000000000000000e+02 6.093271619245103743e+00
6.140000000000000000e+02 6.207515619166099619e+00
6.150000000000000000e+02 7.601398498444281060e+00
6.160000000000000000e+02 7.907990919535479613e+00
6.170000000000000000e+02 8.839679398879887628e+00
6.180000000000000000e+02 9.663931170504037382e+00
6.190000000000000000e+02 1.056304437577769129e+01
6.200000000000000000e+02 1.156992353661066808e+01
6.210000000000000000e+02 1.204138581414644626e+01
6.220000000000000000e+02 1.279187415387808713e+01
6.230000000000000000e+02 1.388066866832611090e+01
6.240000000000000000e+02 1.577214435386853708e+01
6.250000000000000000e+02 1.715413921178179635e+01
6.260000000000000000e+02 1.723510903546981154e+01
6.270000000000000000e+02 1.741197417548229254e+01
6.280000000000000000e+02 1.950650225264474358e+01
6.290000000000000000e+02 2.053749857913297561e+01
6.300000000000000000e+02 2.173078701929063072e+01
6.310000000000000000e+02 2.369024148931753615e+01
6.320000000000000000e+02 2.631246392034849890e+01
6.330000000000000000e+02 2.950468525824519261e+01
6.340000000000000000e+02 3.027179126114913998e+01
6.350000000000000000e+02 3.194509022816849253e+01
6.360000000000000000e+02 3.374494318606102894e+01
6.370000000000000000e+02 3.660697313977613732e+01
6.380000000000000000e+02 4.052035808960803109e+01
6.390000000000000000e+02 4.220055733665220288e+01
6.400000000000000000e+02 4.442974685607638463e+01
6.410000000000000000e+02 4.738032094586196763e+01
6.420000000000000000e+02 5.116820863721229529e+01
6.430000000000000000e+02 5.488163806926594646e+01
6.440000000000000000e+02 5.839258612321086872e+01
6.450000000000000000e+02 6.297835458411107368e+01
6.460000000000000000e+02 6.789361474077161063e+01
6.470000000000000000e+02 7.264013645924082141e+01
6.480000000000000000e+02 7.622228710226093540e+01
6.490000000000000000e+02 8.085724024263804210e+01
6.500000000000000000e+02 8.761368222153093654e+01
6.510000000000000000e+02 9.265584448662109196e+01
6.520000000000000000e+02 9.727022864965790916e+01
6.530000000000000000e+02 1.034121518149762693e+02
6.540000000000000000e+02 1.095202417133375263e+02
6.550000000000000000e+02 1.151090288114500311e+02
6.560000000000000000e+02 1.207371285625389703e+02
6.570000000000000000e+02 1.267476616054760683e+02
6.580000000000000000e+02 1.328007841319229669e+02
6.590000000000000000e+02 1.391795694461730761e+02
6.600000000000000000e+02 1.445579562538892446e+02
6.610000000000000000e+02 1.482764856253889150e+02
6.620000000000000000e+02 1.512314841319227980e+02
6.630000000000000000e+02 1.547622400331881352e+02
6.640000000000000000e+02 1.571187752955818553e+02
6.650000000000000000e+02 1.589747433105164873e+02
6.660000000000000000e+02 1.593698821650767172e+02
6.670000000000000000e+02 1.581875535573532261e+02
6.680000000000000000e+02 1.565289733872640454e+02
6.690000000000000000e+02 1.554603724595603467e+02
6.700000000000000000e+02 1.524120482887367700e+02
6.710000000000000000e+02 1.466532030699025597e+02
6.720000000000000000e+02 1.401436891538780571e+02
6.730000000000000000e+02 1.342517070732213256e+02
6.740000000000000000e+02 1.288495400746733424e+02
6.750000000000000000e+02 1.229968833264205585e+02
6.760000000000000000e+02 1.162066158058494381e+02
6.770000000000000000e+02 1.080343644472102369e+02
6.780000000000000000e+02 1.013630436755859563e+02
6.790000000000000000e+02 9.557441944409862344e+01
6.800000000000000000e+02 8.933126281269440483e+01
6.810000000000000000e+02 8.245171757311761951e+01
6.820000000000000000e+02 7.665038825969709535e+01
6.830000000000000000e+02 7.312864858950423752e+01
6.840000000000000000e+02 6.788924462352213141e+01
6.850000000000000000e+02 6.207087839452390909e+01
6.860000000000000000e+02 5.766032666666666273e+01
6.870000000000000000e+02 5.448112782410291288e+01
6.880000000000000000e+02 5.132227080481226267e+01
6.890000000000000000e+02 4.762523515868078761e+01
6.900000000000000000e+02 4.421292261771421295e+01
6.910000000000000000e+02 4.068376195809997142e+01
6.920000000000000000e+02 3.693794657747353227e+01
6.930000000000000000e+02 3.385582313770221674e+01
6.940000000000000000e+02 3.233281622277536371e+01
6.950000000000000000e+02 2.968534884048956002e+01
6.960000000000000000e+02 2.697118563251765266e+01
6.970000000000000000e+02 2.575779664799834379e+01
6.980000000000000000e+02 2.421739404480403124e+01
6.990000000000000000e+02 2.143429417461636532e+01
7.000000000000000000e+02 1.971213791122174896e+01
7.010000000000000000e+02 1.898722345986311666e+01
7.020000000000000000e+02 1.635925512235589352e+01
7.030000000000000000e+02 1.431297400124457653e+01
7.040000000000000000e+02 1.245461330014525103e+01
7.050000000000000000e+02 1.053561828043974380e+01
7.060000000000000000e+02 9.706365616262187856e+00
7.070000000000000000e+02 9.607590912881146750e+00
7.080000000000000000e+02 9.128604966397025677e+00
7.090000000000000000e+02 7.808709938187062605e+00
7.100000000000000000e+02 5.900580183156982628e+00
7.110000000000000000e+02 4.611718081310937301e+00
7.120000000000000000e+02 4.523883976353451075e+00
7.130000000000000000e+02 4.373290191868924204e+00
7.140000000000000000e+02 2.872420619166178302e+00
7.150000000000000000e+02 2.514381433312588232e+00
7.160000000000000000e+02 1.540087963907966762e+00
7.170000000000000000e+02 3.325291331674156137e-01
7.180000000000000000e+02 2.410052977328101115e-02
7.190000000000000000e+02 1.320244036370828988e-01
7.200000000000000000e+02 8.277646367164518890e-03
7.210000000000000000e+02 6.302692617797248098e-02
7.220000000000000000e+02 7.740091816673573266e-01
7.230000000000000000e+02 8.725454470027009801e-01
7.240000000000000000e+02 4.651156963285434376e-01
7.250000000000000000e+02 5.594083583575529817e-01
7.260000000000000000e+02 7.953605004147709101e-01
7.270000000000000000e+02 2.209317861083029411e-01
7.280000000000000000e+02 3.554060267477429647e-01
7.290000000000000000e+02 8.106732737453309356e-01
7.300000000000000000e+02 4.764731049574923993e-01
7.310000000000000000e+02 2.563282003733390324e-01
7.320000000000000000e+02 7.523701182327406922e-01
7.330000000000000000e+02 1.939832292055540808e-01
7.340000000000000000e+02 1.410516088350989850e-01
7.350000000000000000e+02 1.684991030906479448e-01
7.360000000000000000e+02 1.814207305538245718e-01
7.370000000000000000e+02 4.228184233561588234e-01
7.380000000000000000e+02 2.114637010993579702e-01
7.390000000000000000e+02 4.235659373573972819e-01
7.400000000000000000e+02 2.792099542464434037e-01
7.410000000000000000e+02 1.571804212818986302e-01
7.420000000000000000e+02 2.217396670815163229e-01
7.430000000000000000e+02 3.603871947728817804e-01
7.440000000000000000e+02 1.627700224326831258e-01
7.450000000000000000e+02 1.019427183571858242e+00
7.460000000000000000e+02 1.269941441310656671e+00
7.470000000000000000e+02 1.364025748807296656e+00
7.480000000000000000e+02 2.098639716241429198e+00
7.490000000000000000e+02 2.007875718996280145e+00
7.500000000000000000e+02 1.786729968886129338e+00
7.510000000000000000e+02 2.862394521053724716e+00
7.520000000000000000e+02 2.977222856905852755e+00
7.530000000000000000e+02 3.616655178593673359e+00
7.540000000000000000e+02 4.396858630367161958e+00
7.550000000000000000e+02 4.741258986105345130e+00
7.560000000000000000e+02 4.280238250362951469e+00
7.570000000000000000e+02 3.678729411118011772e+00
7.580000000000000000e+02 4.094060400746692530e+00
7.590000000000000000e+02 5.071219176104492909e+00
7.600000000000000000e+02 6.141680603401765914e+00
7.610000000000000000e+02 6.007768247044195320e+00
7.620000000000000000e+02 5.407097028002497474e+00
7.630000000000000000e+02 6.226603048537588059e+00
7.640000000000000000e+02 7.835824319850654085e+00
7.650000000000000000e+02 7.348092066376270992e+00
7.660000000000000000e+02 7.554652394731382614e+00
7.670000000000000000e+02 7.470632148931755978e+00
7.680000000000000000e+02 7.633927561916639348e+00
7.690000000000000000e+02 8.375692119892146792e+00
7.700000000000000000e+02 8.266167549263677472e+00
7.710000000000000000e+02 8.440508512341843073e+00
7.720000000000000000e+02 8.671676771878930268e+00
7.730000000000000000e+02 9.431788043135666655e+00
7.740000000000000000e+02 9.706008154324823778e+00
7.750000000000000000e+02 1.053148492428953986e+01
7.760000000000000000e+02 1.112602261717129615e+01
7.770000000000000000e+02 1.090530822443476744e+01
7.780000000000000000e+02 1.050488668948350757e+01
7.790000000000000000e+02 1.099595935711323413e+01
7.800000000000000000e+02 1.130992533706700165e+01
7.810000000000000000e+02 1.136973253681808771e+01
7.820000000000000000e+02 1.184839571754461396e+01
7.830000000000000000e+02 1.244220445550717713e+01
7.840000000000000000e+02 1.271665156606513492e+01
7.850000000000000000e+02 1.266548783654838317e+01
7.860000000000000000e+02 1.367450500725993656e+01
7.870000000000000000e+02 1.412051518979464682e+01
7.880000000000000000e+02 1.376571361543249772e+01
7.890000000000000000e+02 1.367791251607552283e+01
7.900000000000000000e+02 1.394726959344532879e+01
7.910000000000000000e+02 1.368270669363204561e+01
7.920000000000000000e+02 1.333720859987555052e+01
7.930000000000000000e+02 1.321414083385188754e+01
7.940000000000000000e+02 1.285657543040863438e+01
7.950000000000000000e+02 1.293137531839867371e+01
7.960000000000000000e+02 1.252973733665214340e+01
7.970000000000000000e+02 1.273421066583696337e+01
7.980000000000000000e+02 1.237413096867868845e+01
7.990000000000000000e+02 1.142693910410617697e+01
8.000000000000000000e+02 1.146928297863513713e+01
8.010000000000000000e+02 1.134955596764156915e+01
8.020000000000000000e+02 1.171742612194111821e+01
8.030000000000000000e+02 1.198188518772038513e+01
8.040000000000000000e+02 1.152195242480810755e+01
8.050000000000000000e+02 1.053318189755285239e+01
8.060000000000000000e+02 9.636634082762922660e+00
8.070000000000000000e+02 9.452383286662524142e+00
8.080000000000000000e+02 8.567604836582299654e+00
8.090000000000000000e+02 8.066949473553204797e+00
8.100000000000000000e+02 7.826990627255756117e+00
8.110000000000000000e+02 7.748278470966407205e+00
8.120000000000000000e+02 7.851260006015342796e+00
8.130000000000000000e+02 7.465692533706691059e+00
8.140000000000000000e+02 6.773566654221109040e+00
8.150000000000000000e+02 6.776518884878647953e+00
8.160000000000000000e+02 5.668202708566672854e+00
8.170000000000000000e+02 4.791359246421900586e+00
8.180000000000000000e+02 4.104184805641960310e+00
8.190000000000000000e+02 3.002679920572369987e+00
8.200000000000000000e+02 3.236624291225900674e+00
8.210000000000000000e+02 4.407508475736220177e+00
8.220000000000000000e+02 2.939534652354286681e+00
8.230000000000000000e+02 2.582066391412568329e+00
8.240000000000000000e+02 2.818887352550809577e+00
8.250000000000000000e+02 2.890661520224024450e+00
8.260000000000000000e+02 2.691689658991893719e+00
8.270000000000000000e+02 1.386417240613942559e+00
8.280000000000000000e+02 2.463725372262912661e-01
8.290000000000000000e+02 1.120114734505350818e-01
8.300000000000000000e+02 1.573034176104583626e+00
8.310000000000000000e+02 1.809458240199111279e+00
8.320000000000000000e+02 9.031036598216115596e-01
8.330000000000000000e+02 8.041665880522804732e-01
8.340000000000000000e+02 8.789592028624707565e-01
8.350000000000000000e+02 5.281617886446772492e-02
8.360000000000000000e+02 2.665290964546729868e-01
8.370000000000000000e+02 8.134075639908604494e-01
8.380000000000000000e+02 9.967664343497739665e-02
8.390000000000000000e+02 3.749671188550146583e-02
8.400000000000000000e+02 9.931698469944066909e-02
8.410000000000000000e+02 1.283124442982168101e-01
8.420000000000000000e+02 1.084134248081314311e-01
8.430000000000000000e+02 1.075151160572499487e-01
8.440000000000000000e+02 5.375930978846943376e-01
8.450000000000000000e+02 3.187984243932787121e-01
8.460000000000000000e+02 2.099266148102039431e-01
8.470000000000000000e+02 2.213166586478640119e-01
8.480000000000000000e+02 1.422699265712508154e-01
8.490000000000000000e+02 5.389345428334334498e-01
8.500000000000000000e+02 8.229118822065537575e-01
8.510000000000000000e+02 9.776529697158260479e-01
8.520000000000000000e+02 1.556592568761657969e+00
8.530000000000000000e+02 2.108855715619166293e+00
8.540000000000000000e+02 1.900624175274833627e+00
8.550000000000000000e+02 1.388409480506007210e+00
8.560000000000000000e+02 1.705754080066376854e+00
8.570000000000000000e+02 1.228125894212820812e+00
8.580000000000000000e+02 1.472061454997918517e+00
8.590000000000000000e+02 2.648766677660228552e+00
8.600000000000000000e+02 2.651844087948572959e+00
8.610000000000000000e+02 2.265886747615094787e+00
8.620000000000000000e+02 2.457227354698195310e+00
8.630000000000000000e+02 2.275904116573330249e+00
8.640000000000000000e+02 1.822670273330570412e+00
8.650000000000000000e+02 2.210891421281883762e+00
8.660000000000000000e+02 2.690716637494817931e+00
8.670000000000000000e+02 2.234123397013066281e+00
8.680000000000000000e+02 2.527122968063028274e+00
8.690000000000000000e+02 3.003270363617509542e+00
8.700000000000000000e+02 2.287801317568965320e+00
8.710000000000000000e+02 2.651229510576523563e+00
8.720000000000000000e+02 2.565421029247042739e+00
8.730000000000000000e+02 3.311315329599652024e+00
8.740000000000000000e+02 4.101700249896301997e+00
8.750000000000000000e+02 4.466011780336027748e+00
8.760000000000000000e+02 4.393983466085879641e+00
8.770000000000000000e+02 4.005267337619248913e+00
8.780000000000000000e+02 3.674980213233771220e+00
8.790000000000000000e+02 3.778052138975315888e+00
8.800000000000000000e+02 2.896965459240821161e+00
8.810000000000000000e+02 3.202284925326694509e+00
8.820000000000000000e+02 2.853992958929684853e+00
8.830000000000000000e+02 3.375536984028187693e+00
8.840000000000000000e+02 4.220257228168418528e+00
8.850000000000000000e+02 3.817057292470443119e+00
8.860000000000000000e+02 3.980241935283137078e+00
8.870000000000000000e+02 3.964537024891094497e+00
8.880000000000000000e+02 5.005229060775732819e+00
8.890000000000000000e+02 5.161183817880115043e+00
8.900000000000000000e+02 4.711862392657140575e+00
8.910000000000000000e+02 4.411160804604859820e+00
8.920000000000000000e+02 4.139073182119902938e+00
8.930000000000000000e+02 3.430607579962682507e+00
8.940000000000000000e+02 2.894370352550816872e+00
8.950000000000000000e+02 2.734179887990042968e+00
8.960000000000000000e+02 2.830212047500516803e+00
8.970000000000000000e+02 3.229596562422230477e+00
8.980000000000000000e+02 2.513967555278964650e+00
8.990000000000000000e+02 2.203317425637850047e+00
9.000000000000000000e+02 2.975669248029885861e+00
9.010000000000000000e+02 2.471847243517947490e+00
9.020000000000000000e+02 3.128713042314887893e+00
9.030000000000000000e+02 2.948149443384506352e+00
9.040000000000000000e+02 1.937042592408264152e+00
9.050000000000000000e+02 8.700564764572149556e-01
9.060000000000000000e+02 7.607945503940153342e-01
9.070000000000000000e+02 7.183411773491266139e-01
9.080000000000000000e+02 3.565549427504048907e-01
9.090000000000000000e+02 1.152426057871829723e+00
9.100000000000000000e+02 6.137175399294243772e-02
9.110000000000000000e+02 8.526099931353697814e-02
9.120000000000000000e+02 1.117691109728250753e-01
9.130000000000000000e+02 8.280263947698425497e-02
9.140000000000000000e+02 3.026562146857686431e-01
9.150000000000000000e+02 2.014529453046818852e-01
9.160000000000000000e+02 2.989195374403399996e-02
9.170000000000000000e+02 1.833222677867619443e-01
9.180000000000000000e+02 7.023044785314394023e-01
9.190000000000000000e+02 1.902111269931442417e-01
9.200000000000000000e+02 5.005203700476678064e-01
9.210000000000000000e+02 1.593965022812060817e-01
9.220000000000000000e+02 3.605894486620777606e-01
9.230000000000000000e+02 9.578553503422804205e-01
9.240000000000000000e+02 1.112175569890054561e-01
9.250000000000000000e+02 1.183131252852104437e-01
9.260000000000000000e+02 7.900205953121750002e-02
9.270000000000000000e+02 1.813351916217346704e-01
9.280000000000000000e+02 2.808527434822813418e-01
9.290000000000000000e+02 1.118061676000823568e-01
9.300000000000000000e+02 1.460721781418443388e-01
9.310000000000000000e+02 3.506960806886479931e-01
9.320000000000000000e+02 1.031210174237644772e-01
9.330000000000000000e+02 1.976240360846072408e-01
9.340000000000000000e+02 2.744726426052696566e-01
9.350000000000000000e+02 2.410191211366871922e-01
9.360000000000000000e+02 4.670489825762247360e-01
9.370000000000000000e+02 4.003113229620497426e-01
9.380000000000000000e+02 1.470887462107506871e-01
9.390000000000000000e+02 4.695667492221478057e-01
9.400000000000000000e+02 1.145844881144992833e+00
9.410000000000000000e+02 6.329153490976975327e-01
9.420000000000000000e+02 1.065590597386438354e+00
9.430000000000000000e+02 6.663977390582784821e-01
9.440000000000000000e+02 1.127796479153714504e+00
9.450000000000000000e+02 1.471472241028836114e+00
9.460000000000000000e+02 8.355732345985906750e-01
9.470000000000000000e+02 3.368618276648857601e-01
9.480000000000000000e+02 3.845344075917444537e-01
9.490000000000000000e+02 2.587755984235632911e-01
9.500000000000000000e+02 8.719584848610616445e-01
9.510000000000000000e+02 6.957705469819609467e-01
9.520000000000000000e+02 8.182884733457750359e-01
9.530000000000000000e+02 5.808850024885761076e-01
9.540000000000000000e+02 5.784100742584487032e-01
9.550000000000000000e+02 2.126373776602500376e-01
9.560000000000000000e+02 1.821804497391094901e-01
9.570000000000000000e+02 8.507680186683366230e-01
9.580000000000000000e+02 1.351414576021573444e+00
9.590000000000000000e+02 6.898315790128390912e-01
9.600000000000000000e+02 1.778431179838257936e+00
9.610000000000000000e+02 2.015397168637205638e+00
9.620000000000000000e+02 1.398892125907533979e+00
9.630000000000000000e+02 2.295557957477688760e+00
9.640000000000000000e+02 1.942418445135833727e+00
9.650000000000000000e+02 2.220807729931548291e+00
9.660000000000000000e+02 2.540777439327954301e+00
9.670000000000000000e+02 2.870354139805015858e+00
9.680000000000000000e+02 3.825380394316497679e+00
9.690000000000000000e+02 4.113804582659208897e+00
9.700000000000000000e+02 4.830122158058496318e+00
9.710000000000000000e+02 4.596764851690524623e+00
9.720000000000000000e+02 4.654167939431651746e+00
9.730000000000000000e+02 4.722050002696508209e+00
9.740000000000000000e+02 5.398850500207398539e+00
9.750000000000000000e+02 5.621305967641569978e+00
9.760000000000000000e+02 6.112081881145003948e+00
9.770000000000000000e+02 6.269418849025318430e+00
9.780000000000000000e+02 5.970417882804402332e+00
9.790000000000000000e+02 7.322396333540811320e+00
9.800000000000000000e+02 7.822759884695099863e+00
9.810000000000000000e+02 6.564704251607564878e+00
9.820000000000000000e+02 6.593979267994174442e+00
9.830000000000000000e+02 7.696739706760704181e+00
9.840000000000000000e+02 8.033328355320472625e+00
9.850000000000000000e+02 8.074450760423149021e+00
9.860000000000000000e+02 6.771180322687647468e+00
9.870000000000000000e+02 7.555842462559676953e+00
9.880000000000000000e+02 8.135808963285617423e+00
9.890000000000000000e+02 7.669842582451766866e+00
9.900000000000000000e+02 7.705439769549895956e+00
9.910000000000000000e+02 8.119583791744451773e+00
9.920000000000000000e+02 7.974655601949794281e+00
9.930000000000000000e+02 7.439860841319215545e+00
9.940000000000000000e+02 6.319323887782613447e+00
9.950000000000000000e+02 6.934109522713155727e+00
9.960000000000000000e+02 6.729012599875533240e+00
9.970000000000000000e+02 6.934265563161171819e+00
9.980000000000000000e+02 7.188112224642194903e+00
9.990000000000000000e+02 6.409701008711886416e+00
1.000000000000000000e+03 6.690333465463597307e+00
1.001000000000000000e+03 5.698807964730391973e+00
1.002000000000000000e+03 7.751879514522824977e+00
1.003000000000000000e+03 6.733110219917031181e+00
1.004000000000000000e+03 7.277205995850649423e+00
1.005000000000000000e+03 6.794157883817468324e+00
1.006000000000000000e+03 6.026111507246377563e+00
1.007000000000000000e+03 6.574393778008303713e+00
1.008000000000000000e+03 7.368746159751044189e+00
1.009000000000000000e+03 8.600718543568483199e+00
1.010000000000000000e+03 9.598119161490691553e+00
1.011000000000000000e+03 9.539137904564308101e+00
1.012000000000000000e+03 1.001890374273858519e+01
1.013000000000000000e+03 9.585322838174228366e+00
1.014000000000000000e+03 1.071467999999999954e+01
1.015000000000000000e+03 1.227271535269707492e+01
1.016000000000000000e+03 1.276319095435685469e+01
1.017000000000000000e+03 1.361288829875513606e+01
1.018000000000000000e+03 1.578554894409939635e+01
1.019000000000000000e+03 1.730833946058092465e+01
1.020000000000000000e+03 1.902845597510376408e+01
1.021000000000000000e+03 2.053883394190873446e+01
1.022000000000000000e+03 2.146071858921159503e+01
1.023000000000000000e+03 2.161166302904563707e+01
1.024000000000000000e+03 2.184361097510372929e+01
1.025000000000000000e+03 2.319400894190881957e+01
1.026000000000000000e+03 2.507279504149364158e+01
1.027000000000000000e+03 2.591797896265558165e+01
1.028000000000000000e+03 2.655980721991700833e+01
1.029000000000000000e+03 2.629136775933609727e+01
1.030000000000000000e+03 2.646318551867215874e+01
1.031000000000000000e+03 2.721153288381743351e+01
1.032000000000000000e+03 2.748074896265558209e+01
1.033000000000000000e+03 2.663194236514536684e+01
1.034000000000000000e+03 2.547501645228219047e+01
1.035000000000000000e+03 2.497425705394190842e+01
1.036000000000000000e+03 2.451372539419091368e+01
1.037000000000000000e+03 2.271743012448143162e+01
1.038000000000000000e+03 2.147457402489626688e+01
1.039000000000000000e+03 2.073859089211612172e+01
1.040000000000000000e+03 1.899567387966822452e+01
1.041000000000000000e+03 1.785677645228216903e+01
1.042000000000000000e+03 1.751792661825725261e+01
1.043000000000000000e+03 1.715556341614902180e+01
1.044000000000000000e+03 1.609013771784240632e+01
1.045000000000000000e+03 1.440250182572611948e+01
1.046000000000000000e+03 1.310730917012441488e+01
1.047000000000000000e+03 1.246433341614910262e+01
1.048000000000000000e+03 1.209140556016597934e+01
1.049000000000000000e+03 1.134069091286302466e+01
1.050000000000000000e+03 1.050510900414941062e+01
1.051000000000000000e+03 9.245913886128427350e+00
1.052000000000000000e+03 8.632166385892118043e+00
1.053000000000000000e+03 8.563945580912832867e+00
1.054000000000000000e+03 7.611419199170222250e+00
1.055000000000000000e+03 6.319599861283635711e+00
1.056000000000000000e+03 6.615722485477144588e+00
1.057000000000000000e+03 5.885059367220009108e+00
1.058000000000000000e+03 5.022733746887982242e+00
1.059000000000000000e+03 5.054463844398346950e+00
1.060000000000000000e+03 4.993156929460578652e+00
1.061000000000000000e+03 5.254854319502026527e+00
1.062000000000000000e+03 5.316963174273860560e+00
1.063000000000000000e+03 4.797324477178414703e+00
1.064000000000000000e+03 4.758940514522835841e+00
1.065000000000000000e+03 4.454037174273866029e+00
1.066000000000000000e+03 4.359472406639010700e+00
1.067000000000000000e+03 5.377812975103824833e+00
1.068000000000000000e+03 4.239323850622425560e+00
1.069000000000000000e+03 4.399275560165978760e+00
1.070000000000000000e+03 3.468703369294489303e+00
1.071000000000000000e+03 3.281332717842179836e+00
1.072000000000000000e+03 4.138977875776403970e+00
1.073000000000000000e+03 3.032979338174154549e+00
1.074000000000000000e+03 1.563616605809134086e+00
1.075000000000000000e+03 2.648180217842276196e+00
1.076000000000000000e+03 2.828991057971008694e+00
1.077000000000000000e+03 2.057414987551788421e+00
1.078000000000000000e+03 1.309713668049840019e+00
1.079000000000000000e+03 1.305005817427381531e+00
1.080000000000000000e+03 1.249217049689424819e+00
1.081000000000000000e+03 8.507810311203766185e-01
1.082000000000000000e+03 5.891755975103710741e-01
1.083000000000000000e+03 6.283549543568461848e-01
1.084000000000000000e+03 4.731273416148792377e-01
1.085000000000000000e+03 5.034307957262008221e-02
1.086000000000000000e+03 1.663196224066394724e-01
1.087000000000000000e+03 4.614284356846882762e-01
1.088000000000000000e+03 3.593865962732876174e-01
1.089000000000000000e+03 4.365265912863197650e-01
1.090000000000000000e+03 4.658921950207647322e-01
1.091000000000000000e+03 5.298484543568559024e-01
1.092000000000000000e+03 1.685998260869870369e-01
1.093000000000000000e+03 3.105369336099523814e-01
1.094000000000000000e+03 1.253335269709115463e-01
1.095000000000000000e+03 1.184705809128811405e+00
1.096000000000000000e+03 2.725821055900580769e-01
1.097000000000000000e+03 5.889121887966796143e-01
1.098000000000000000e+03 2.630176954812964984e-01
1.099000000000000000e+03 2.150721141078831555e-01
1.100000000000000000e+03 2.871848319502063318e-01
1.101000000000000000e+03 3.939525228216086972e-01
1.102000000000000000e+03 3.594912946058887449e-01
1.103000000000000000e+03 7.033820071784170624e-02
1.104000000000000000e+03 1.382039170124420013e-01
1.105000000000000000e+03 2.749115601659691821e-01
1.106000000000000000e+03 1.978719730290440793e-01
1.107000000000000000e+03 7.016407496680106270e-02
1.108000000000000000e+03 2.866528215767775722e-01
1.109000000000000000e+03 4.962482448132781165e-01
1.110000000000000000e+03 2.039846762282173098e-01
1.111000000000000000e+03 4.383211618259449417e-03
1.112000000000000000e+03 8.595826482988666584e-02
1.113000000000000000e+03 1.337279178405591518e-01
1.114000000000000000e+03 2.305027962634599858e-01
1.115000000000000000e+03 2.243618208091313973e-02
1.116000000000000000e+03 1.408221551680252648e-01
1.117000000000000000e+03 4.889613291925465344e-01
1.118000000000000000e+03 1.011186345684707694e-01
1.119000000000000000e+03 4.106991742738572149e-01
1.120000000000000000e+03 1.040254327773357357e+00
1.121000000000000000e+03 2.298888840578559023e-01
1.122000000000000000e+03 4.081036971057330764e-01
1.123000000000000000e+03 2.199204315352553396e-01
1.124000000000000000e+03 3.348987614107874489e-01
1.125000000000000000e+03 5.486558654245330402e-01
1.126000000000000000e+03 1.537036294605856668e+00
1.127000000000000000e+03 7.319386763485444813e-01
1.128000000000000000e+03 1.398269630705414990e+00
1.129000000000000000e+03 6.532692484472085725e-01
1.130000000000000000e+03 1.635310273858854746e+00
1.131000000000000000e+03 1.804047570539405898e+00
1.132000000000000000e+03 1.617441960580925153e+00
1.133000000000000000e+03 1.718093446058096774e+00
1.134000000000000000e+03 2.263953066390036462e+00
1.135000000000000000e+03 2.596004775933584696e+00
1.136000000000000000e+03 1.178568103734483730e+00
1.137000000000000000e+03 1.065811838174242965e+00
1.138000000000000000e+03 1.730276097510395905e+00
1.139000000000000000e+03 2.274173458506228762e+00
1.140000000000000000e+03 2.104965734439883551e+00
1.141000000000000000e+03 1.151889595435692470e+00
1.142000000000000000e+03 2.766124099585252960e+00
1.143000000000000000e+03 3.079327340249144562e+00
1.144000000000000000e+03 2.932327058091234395e+00
1.145000000000000000e+03 1.815897165974993621e+00
1.146000000000000000e+03 1.940222195020703033e+00
1.147000000000000000e+03 1.514067923236596114e+00
1.148000000000000000e+03 1.679849854771783946e+00
1.149000000000000000e+03 2.025784896265486967e+00
1.150000000000000000e+03 1.956789215767622769e+00
1.151000000000000000e+03 2.515038875518678552e+00
1.152000000000000000e+03 2.611126605809134915e+00
1.153000000000000000e+03 2.596992659751029997e+00
1.154000000000000000e+03 1.904984633540432348e+00
1.155000000000000000e+03 1.808536535269723355e+00
1.156000000000000000e+03 2.221872404564285919e+00
1.157000000000000000e+03 2.554182020746774029e+00
1.158000000000000000e+03 3.075075971014501697e+00
1.159000000000000000e+03 1.851983904564284744e+00
1.160000000000000000e+03 2.165729290456406275e+00
1.161000000000000000e+03 1.601848659751065496e+00
1.162000000000000000e+03 1.833876165975106831e+00
1.163000000000000000e+03 1.347107226141113445e+00
1.164000000000000000e+03 2.333091319502007099e+00
1.165000000000000000e+03 1.870346520746908103e+00
1.166000000000000000e+03 1.249870080912883097e+00
1.167000000000000000e+03 1.912588319501981049e+00
1.168000000000000000e+03 2.083905290456464776e+00
1.169000000000000000e+03 1.841862282157706865e+00
1.170000000000000000e+03 2.543335970954305303e+00
1.171000000000000000e+03 1.455845678423275169e+00
1.172000000000000000e+03 1.578973616182572925e+00
1.173000000000000000e+03 1.883470526970971282e+00
1.174000000000000000e+03 2.202430863070522271e+00
1.175000000000000000e+03 1.561033738589232334e+00
1.176000000000000000e+03 1.071096082987545550e+00
1.177000000000000000e+03 9.867442655601831314e-01
1.178000000000000000e+03 1.576304348547660217e+00
1.179000000000000000e+03 1.878560931535258272e+00
1.180000000000000000e+03 1.331432151452262014e+00
1.181000000000000000e+03 9.046820580913640386e-01
1.182000000000000000e+03 4.186765975103603488e-01
1.183000000000000000e+03 1.178766493775975421e+00
1.184000000000000000e+03 1.645805468879666167e+00
1.185000000000000000e+03 1.341272531120343503e+00
1.186000000000000000e+03 1.952487286307059478e+00
1.187000000000000000e+03 8.307479149376033600e-01
1.188000000000000000e+03 8.919368941907886983e-01
1.189000000000000000e+03 1.139490838174275433e+00
1.190000000000000000e+03 6.950396825725939642e-01
1.191000000000000000e+03 5.530276348547314980e-01
1.192000000000000000e+03 1.028907958506200204e+00
1.193000000000000000e+03 1.574012854771793979e+00
1.194000000000000000e+03 1.611571912863007716e+00
1.195000000000000000e+03 6.489408095238907714e-01
1.196000000000000000e+03 6.169350049999999808e-02
1.197000000000000000e+03 1.209316379668118113e+00
1.198000000000000000e+03 1.499698655601662045e+00
1.199000000000000000e+03 1.622969132505170053e+00
1.200000000000000000e+03 1.743711556016599440e+00
1.201000000000000000e+03 1.607960817427362965e+00
1.202000000000000000e+03 8.798020539419780794e-01
1.203000000000000000e+03 1.285095853002054866e+00
1.204000000000000000e+03 2.466442684647269790e+00
1.205000000000000000e+03 2.263627116182503229e+00
1.206000000000000000e+03 2.428547248962689586e+00
1.207000000000000000e+03 1.410942852697083971e+00
1.208000000000000000e+03 1.556540323651476543e+00
1.209000000000000000e+03 2.535132887966800030e+00
1.210000000000000000e+03 1.186292809128620007e+00
1.211000000000000000e+03 1.981759157841960772e-01
1.212000000000000000e+03 8.878985377178193195e-02
1.213000000000000000e+03 9.537045601659491778e-01
1.214000000000000000e+03 8.214021721991120462e-01
1.215000000000000000e+03 1.094104585062012774e-01
1.216000000000000000e+03 3.684586846472842070e-01
1.217000000000000000e+03 1.163763423236503947e+00
1.218000000000000000e+03 7.973510705394234455e-01
1.219000000000000000e+03 6.604837883817967770e-01
1.220000000000000000e+03 2.210214128630702268e-01
1.221000000000000000e+03 8.638239045643703040e-01
1.222000000000000000e+03 1.556422782157672380e+00
1.223000000000000000e+03 4.391067178423636030e-01
1.224000000000000000e+03 8.551537883817771357e-01
1.225000000000000000e+03 2.343019176637823331e-01
1.226000000000000000e+03 7.916576058090064594e-01
1.227000000000000000e+03 9.828853817427465334e-01
1.228000000000000000e+03 4.476968881987388738e-01
1.229000000000000000e+03 1.150485228216240885e-01
1.230000000000000000e+03 5.831462946057284213e-01
1.231000000000000000e+03 2.020034873443942836e+00
1.232000000000000000e+03 7.166215672877467302e-01
1.233000000000000000e+03 3.863493817427092747e-01
1.234000000000000000e+03 9.011356473029048519e-01
1.235000000000000000e+03 7.449710414937863456e-01
1.236000000000000000e+03 1.232129318840588406e+00
1.237000000000000000e+03 8.200887510373584544e-01
1.238000000000000000e+03 2.071210186722104440e-01
1.239000000000000000e+03 9.338773789828799798e-02
1.240000000000000000e+03 3.387416770186201243e-01
1.241000000000000000e+03 7.178246721991794477e-01
1.242000000000000000e+03 8.355177634854644708e-01
1.243000000000000000e+03 7.515799792531077106e-01
1.244000000000000000e+03 8.058316149068394108e-01
1.245000000000000000e+03 8.925740477179171517e-01
1.246000000000000000e+03 1.681891006223980467e+00
1.247000000000000000e+03 4.869046535269966336e-01
1.248000000000000000e+03 3.776498879668069297e-01
1.249000000000000000e+03 5.758136348547940875e-01
1.250000000000000000e+03 8.470189626555821860e-01
1.251000000000000000e+03 1.201488452282157615e+00
1.252000000000000000e+03 3.622434149377208312e-01
1.253000000000000000e+03 2.163757406639080783e-01
1.254000000000000000e+03 6.393080124481259618e-01
1.255000000000000000e+03 1.170571230290480491e+00
1.256000000000000000e+03 1.360429699170102147e+00
1.257000000000000000e+03 7.561153360996049067e-01
1.258000000000000000e+03 7.413095560166019782e-01
1.259000000000000000e+03 1.416636858921156206e+00
1.260000000000000000e+03 1.287893145228229397e+00
1.261000000000000000e+03 1.265273627329182471e+00
1.262000000000000000e+03 1.568759136929464004e+00
1.263000000000000000e+03 1.359354228215769123e+00
1.264000000000000000e+03 1.062788367219938301e+00
1.265000000000000000e+03 6.452415714285668624e-01
1.266000000000000000e+03 4.701497593360955407e-01
1.267000000000000000e+03 2.518989253112324800e-01
1.268000000000000000e+03 1.252450908713645061e+00
1.269000000000000000e+03 1.743454641821926110e+00
1.270000000000000000e+03 1.036502284232426740e+00
1.271000000000000000e+03 4.161536601659439338e-02
1.272000000000000000e+03 1.489767432468982467e-01
1.273000000000000000e+03 1.324663815734993033e+00
1.274000000000000000e+03 1.101005485477224655e+00
1.275000000000000000e+03 7.967000539419030192e-01
1.276000000000000000e+03 1.403113128630702366e+00
1.277000000000000000e+03 8.413011677018604750e-01
1.278000000000000000e+03 7.479851825726109293e-01
1.279000000000000000e+03 4.756963443983245887e-01
1.280000000000000000e+03 2.628419834024911528e-01
1.281000000000000000e+03 4.781059934369171621e-02
1.282000000000000000e+03 9.686725435684675478e-01
1.283000000000000000e+03 1.285382543568472258e+00
1.284000000000000000e+03 1.191799883817452832e+00
1.285000000000000000e+03 8.708270373444122470e-01
1.286000000000000000e+03 7.910230269709731532e-01
1.287000000000000000e+03 1.272109730290470919e+00
1.288000000000000000e+03 1.442434365145261577e+00
1.289000000000000000e+03 8.884676058091302009e-01
1.290000000000000000e+03 1.105616315352786483e+00
1.291000000000000000e+03 2.336306946058072320e+00
1.292000000000000000e+03 1.144704157676371903e+00
1.293000000000000000e+03 9.028033485477151565e-01
1.294000000000000000e+03 2.499811078838614087e-01
1.295000000000000000e+03 1.316725336618176367e-01
1.296000000000000000e+03 2.181768132780086966e-01
1.297000000000000000e+03 1.294616556016504050e-01
1.298000000000000000e+03 3.243155684647135995e-01
1.299000000000000000e+03 3.943317676348566669e-01
1.300000000000000000e+03 1.187667634854634446e-01
1.301000000000000000e+03 4.708560207469497660e-01
1.302000000000000000e+03 5.620102173913956722e-01
1.303000000000000000e+03 0.000000000000000000e+00
1.304000000000000000e+03 0.000000000000000000e+00
1.305000000000000000e+03 0.000000000000000000e+00
1.306000000000000000e+03 0.000000000000000000e+00
1.307000000000000000e+03 0.000000000000000000e+00
1.308000000000000000e+03 0.000000000000000000e+00
1.309000000000000000e+03 0.000000000000000000e+00
1.310000000000000000e+03 0.000000000000000000e+00
1.311000000000000000e+03 0.000000000000000000e+00
1.312000000000000000e+03 0.000000000000000000e+00
1.313000000000000000e+03 0.000000000000000000e+00
1.314000000000000000e+03 0.000000000000000000e+00
1.315000000000000000e+03 0.000000000000000000e+00
1.316000000000000000e+03 0.000000000000000000e+00
1.317000000000000000e+03 0.000000000000000000e+00
1.318000000000000000e+03 0.000000000000000000e+00
1.319000000000000000e+03 0.000000000000000000e+00
1.320000000000000000e+03 0.000000000000000000e+00
1.321000000000000000e+03 0.000000000000000000e+00
1.322000000000000000e+03 0.000000000000000000e+00
1.323000000000000000e+03 0.000000000000000000e+00
1.324000000000000000e+03 0.000000000000000000e+00
1.325000000000000000e+03 0.000000000000000000e+00
1.326000000000000000e+03 0.000000000000000000e+00
1.327000000000000000e+03 0.000000000000000000e+00
1.328000000000000000e+03 0.000000000000000000e+00
1.329000000000000000e+03 0.000000000000000000e+00
1.330000000000000000e+03 0.000000000000000000e+00
1.331000000000000000e+03 0.000000000000000000e+00
1.332000000000000000e+03 0.000000000000000000e+00
1.333000000000000000e+03 0.000000000000000000e+00
1.334000000000000000e+03 0.000000000000000000e+00
1.335000000000000000e+03 0.000000000000000000e+00
1.336000000000000000e+03 0.000000000000000000e+00
1.337000000000000000e+03 0.000000000000000000e+00
1.338000000000000000e+03 0.000000000000000000e+00
1.339000000000000000e+03 0.000000000000000000e+00
1.340000000000000000e+03 0.000000000000000000e+00
1.341000000000000000e+03 0.000000000000000000e+00
1.342000000000000000e+03 0.000000000000000000e+00
1.343000000000000000e+03 0.000000000000000000e+00
1.344000000000000000e+03 0.000000000000000000e+00
1.345000000000000000e+03 0.000000000000000000e+00
1.346000000000000000e+03 0.000000000000000000e+00
1.347000000000000000e+03 0.000000000000000000e+00
1.348000000000000000e+03 0.000000000000000000e+00
1.349000000000000000e+03 0.000000000000000000e+00
1.350000000000000000e+03 0.000000000000000000e+00
1.351000000000000000e+03 0.000000000000000000e+00
1.352000000000000000e+03 0.000000000000000000e+00
1.353000000000000000e+03 0.000000000000000000e+00
1.354000000000000000e+03 0.000000000000000000e+00
1.355000000000000000e+03 0.000000000000000000e+00
1.356000000000000000e+03 0.000000000000000000e+00
1.357000000000000000e+03 0.000000000000000000e+00
1.358000000000000000e+03 0.000000000000000000e+00
1.359000000000000000e+03 0.000000000000000000e+00
1.360000000000000000e+03 0.000000000000000000e+00
1.361000000000000000e+03 0.000000000000000000e+00
1.362000000000000000e+03 0.000000000000000000e+00
1.363000000000000000e+03 0.000000000000000000e+00
1.364000000000000000e+03 0.000000000000000000e+00
1.365000000000000000e+03 0.000000000000000000e+00
1.366000000000000000e+03 0.000000000000000000e+00
1.367000000000000000e+03 0.000000000000000000e+00
1.368000000000000000e+03 0.000000000000000000e+00
1.369000000000000000e+03 0.000000000000000000e+00
1.370000000000000000e+03 0.000000000000000000e+00
1.371000000000000000e+03 0.000000000000000000e+00
1.372000000000000000e+03 0.000000000000000000e+00
1.373000000000000000e+03 0.000000000000000000e+00
1.374000000000000000e+03 0.000000000000000000e+00
1.375000000000000000e+03 0.000000000000000000e+00
1.376000000000000000e+03 0.000000000000000000e+00
1.377000000000000000e+03 0.000000000000000000e+00
1.378000000000000000e+03 0.000000000000000000e+00
1.379000000000000000e+03 0.000000000000000000e+00
1.380000000000000000e+03 0.000000000000000000e+00
1.381000000000000000e+03 0.000000000000000000e+00
1.382000000000000000e+03 0.000000000000000000e+00
1.383000000000000000e+03 0.000000000000000000e+00
1.384000000000000000e+03 0.000000000000000000e+00
1.385000000000000000e+03 0.000000000000000000e+00
1.386000000000000000e+03 0.000000000000000000e+00
1.387000000000000000e+03 0.000000000000000000e+00
1.388000000000000000e+03 0.000000000000000000e+00
1.389000000000000000e+03 0.000000000000000000e+00
1.390000000000000000e+03 0.000000000000000000e+00
1.391000000000000000e+03 0.000000000000000000e+00
1.392000000000000000e+03 0.000000000000000000e+00
1.393000000000000000e+03 0.000000000000000000e+00
1.394000000000000000e+03 0.000000000000000000e+00
1.395000000000000000e+03 0.000000000000000000e+00
1.396000000000000000e+03 0.000000000000000000e+00
1.397000000000000000e+03 0.000000000000000000e+00
1.398000000000000000e+03 0.000000000000000000e+00
1.399000000000000000e+03 0.000000000000000000e+00
1.400000000000000000e+03 0.000000000000000000e+00
1.401000000000000000e+03 0.000000000000000000e+00
1.402000000000000000e+03 0.000000000000000000e+00
1.403000000000000000e+03 0.000000000000000000e+00
1.404000000000000000e+03 0.000000000000000000e+00
1.405000000000000000e+03 0.000000000000000000e+00
1.406000000000000000e+03 0.000000000000000000e+00
1.407000000000000000e+03 0.000000000000000000e+00
1.408000000000000000e+03 0.000000000000000000e+00
1.409000000000000000e+03 0.000000000000000000e+00
1.410000000000000000e+03 0.000000000000000000e+00
1.411000000000000000e+03 0.000000000000000000e+00
1.412000000000000000e+03 0.000000000000000000e+00
1.413000000000000000e+03 0.000000000000000000e+00
1.414000000000000000e+03 0.000000000000000000e+00
1.415000000000000000e+03 0.000000000000000000e+00
1.416000000000000000e+03 0.000000000000000000e+00
1.417000000000000000e+03 0.000000000000000000e+00
1.418000000000000000e+03 0.000000000000000000e+00
1.419000000000000000e+03 0.000000000000000000e+00
1.420000000000000000e+03 0.000000000000000000e+00
1.421000000000000000e+03 0.000000000000000000e+00
1.422000000000000000e+03 0.000000000000000000e+00
1.423000000000000000e+03 0.000000000000000000e+00
1.424000000000000000e+03 0.000000000000000000e+00
1.425000000000000000e+03 0.000000000000000000e+00
1.426000000000000000e+03 0.000000000000000000e+00
1.427000000000000000e+03 0.000000000000000000e+00
1.428000000000000000e+03 0.000000000000000000e+00
1.429000000000000000e+03 0.000000000000000000e+00
1.430000000000000000e+03 0.000000000000000000e+00
1.431000000000000000e+03 0.000000000000000000e+00
1.432000000000000000e+03 0.000000000000000000e+00
1.433000000000000000e+03 0.000000000000000000e+00
1.434000000000000000e+03 0.000000000000000000e+00
1.435000000000000000e+03 0.000000000000000000e+00
1.436000000000000000e+03 0.000000000000000000e+00
1.437000000000000000e+03 0.000000000000000000e+00
1.438000000000000000e+03 0.000000000000000000e+00
1.439000000000000000e+03 0.000000000000000000e+00
1.440000000000000000e+03 0.000000000000000000e+00
1.441000000000000000e+03 0.000000000000000000e+00
1.442000000000000000e+03 0.000000000000000000e+00
1.443000000000000000e+03 0.000000000000000000e+00
1.444000000000000000e+03 0.000000000000000000e+00
1.445000000000000000e+03 0.000000000000000000e+00
1.446000000000000000e+03 0.000000000000000000e+00
1.447000000000000000e+03 0.000000000000000000e+00
1.448000000000000000e+03 0.000000000000000000e+00
1.449000000000000000e+03 0.000000000000000000e+00
1.450000000000000000e+03 0.000000000000000000e+00
1.451000000000000000e+03 0.000000000000000000e+00
1.452000000000000000e+03 0.000000000000000000e+00
1.453000000000000000e+03 0.000000000000000000e+00
1.454000000000000000e+03 0.000000000000000000e+00
1.455000000000000000e+03 0.000000000000000000e+00
1.456000000000000000e+03 0.000000000000000000e+00
1.457000000000000000e+03 0.000000000000000000e+00
1.458000000000000000e+03 0.000000000000000000e+00
1.459000000000000000e+03 0.000000000000000000e+00
1.460000000000000000e+03 0.000000000000000000e+00
1.461000000000000000e+03 0.000000000000000000e+00
1.462000000000000000e+03 0.000000000000000000e+00
1.463000000000000000e+03 0.000000000000000000e+00
1.464000000000000000e+03 0.000000000000000000e+00
1.465000000000000000e+03 0.000000000000000000e+00
1.466000000000000000e+03 0.000000000000000000e+00
1.467000000000000000e+03 0.000000000000000000e+00
1.468000000000000000e+03 0.000000000000000000e+00
1.469000000000000000e+03 0.000000000000000000e+00
1.470000000000000000e+03 0.000000000000000000e+00
1.471000000000000000e+03 0.000000000000000000e+00
1.472000000000000000e+03 0.000000000000000000e+00
1.473000000000000000e+03 0.000000000000000000e+00
1.474000000000000000e+03 0.000000000000000000e+00
1.475000000000000000e+03 0.000000000000000000e+00
1.476000000000000000e+03 0.000000000000000000e+00
1.477000000000000000e+03 0.000000000000000000e+00
1.478000000000000000e+03 0.000000000000000000e+00
1.479000000000000000e+03 0.000000000000000000e+00
1.480000000000000000e+03 0.000000000000000000e+00
1.481000000000000000e+03 0.000000000000000000e+00
1.482000000000000000e+03 0.000000000000000000e+00
1.483000000000000000e+03 0.000000000000000000e+00
1.484000000000000000e+03 0.000000000000000000e+00
1.485000000000000000e+03 0.000000000000000000e+00
1.486000000000000000e+03 0.000000000000000000e+00
1.487000000000000000e+03 0.000000000000000000e+00
1.488000000000000000e+03 0.000000000000000000e+00
1.489000000000000000e+03 0.000000000000000000e+00
1.490000000000000000e+03 0.000000000000000000e+00
1.491000000000000000e+03 0.000000000000000000e+00
1.492000000000000000e+03 0.000000000000000000e+00
1.493000000000000000e+03 0.000000000000000000e+00
1.494000000000000000e+03 0.000000000000000000e+00
1.495000000000000000e+03 0.000000000000000000e+00
1.496000000000000000e+03 0.000000000000000000e+00
1.497000000000000000e+03 0.000000000000000000e+00
1.498000000000000000e+03 0.000000000000000000e+00
1.499000000000000000e+03 0.000000000000000000e+00
1.500000000000000000e+03 0.000000000000000000e+00
