1.010000000000000000e+02 0.000000000000000000e+00
1.020000000000000000e+02 0.000000000000000000e+00
1.030000000000000000e+02 0.000000000000000000e+00
1.040000000000000000e+02 0.000000000000000000e+00
1.050000000000000000e+02 0.000000000000000000e+00
1.060000000000000000e+02 0.000000000000000000e+00
1.070000000000000000e+02 0.000000000000000000e+00
1.080000000000000000e+02 0.000000000000000000e+00
1.090000000000000000e+02 0.000000000000000000e+00
1.100000000000000000e+02 0.000000000000000000e+00
1.110000000000000000e+02 0.000000000000000000e+00
1.120000000000000000e+02 0.000000000000000000e+00
1.130000000000000000e+02 0.000000000000000000e+00
1.140000000000000000e+02 0.000000000000000000e+00
1.150000000000000000e+02 0.000000000000000000e+00
1.160000000000000000e+02 0.000000000000000000e+00
1.170000000000000000e+02 0.000000000000000000e+00
1.180000000000000000e+02 0.000000000000000000e+00
1.190000000000000000e+02 0.000000000000000000e+00
1.200000000000000000e+02 0.000000000000000000e+00
1.210000000000000000e+02 0.000000000000000000e+00
1.220000000000000000e+02 0.000000000000000000e+00
1.230000000000000000e+02 0.000000000000000000e+00
1.240000000000000000e+02 0.000000000000000000e+00
1.250000000000000000e+02 0.000000000000000000e+00
1.260000000000000000e+02 0.000000000000000000e+00
1.270000000000000000e+02 0.000000000000000000e+00
1.280000000000000000e+02 0.000000000000000000e+00
1.290000000000000000e+02 0.000000000000000000e+00
1.300000000000000000e+02 0.000000000000000000e+00
1.310000000000000000e+02 0.000000000000000000e+00
1.320000000000000000e+02 0.000000000000000000e+00
1.330000000000000000e+02 0.000000000000000000e+00
1.340000000000000000e+02 0.000000000000000000e+00
1.350000000000000000e+02 0.000000000000000000e+00
1.360000000000000000e+02 0.000000000000000000e+00
1.370000000000000000e+02 0.000000000000000000e+00
1.380000000000000000e+02 0.000000000000000000e+00
1.390000000000000000e+02 0.000000000000000000e+00
1.400000000000000000e+02 0.000000000000000000e+00
1.410000000000000000e+02 0.000000000000000000e+00
1.420000000000000000e+02 0.000000000000000000e+00
1.430000000000000000e+02 0.000000000000000000e+00
1.440000000000000000e+02 0.000000000000000000e+00
1.450000000000000000e+02 0.000000000000000000e+00
1.460000000000000000e+02 0.000000000000000000e+00
1.470000000000000000e+02 0.000000000000000000e+00
1.480000000000000000e+02 0.000000000000000000e+00
1.490000000000000000e+02 0.000000000000000000e+00
1.500000000000000000e+02 0.000000000000000000e+00
1.510000000000000000e+02 0.000000000000000000e+00
1.520000000000000000e+02 0.000000000000000000e+00
1.530000000000000000e+02 0.000000000000000000e+00
1.540000000000000000e+02 0.000000000000000000e+00
1.550000000000000000e+02 0.000000000000000000e+00
1.560000000000000000e+02 0.000000000000000000e+00
1.570000000000000000e+02 0.000000000000000000e+00
1.580000000000000000e+02 0.000000000000000000e+00
1.590000000000000000e+02 0.000000000000000000e+00
1.600000000000000000e+02 0.000000000000000000e+00
1.610000000000000000e+02 0.000000000000000000e+00
1.620000000000000000e+02 0.000000000000000000e+00
1.630000000000000000e+02 0.000000000000000000e+00
1.640000000000000000e+02 0.000000000000000000e+00
1.650000000000000000e+02 0.000000000000000000e+00
1.660000000000000000e+02 0.000000000000000000e+00
1.670000000000000000e+02 0.000000000000000000e+00
1.680000000000000000e+02 0.000000000000000000e+00
1.690000000000000000e+02 0.000000000000000000e+00
1.700000000000000000e+02 0.000000000000000000e+00
1.710000000000000000e+02 0.000000000000000000e+00
1.720000000000000000e+02 0.000000000000000000e+00
1.730000000000000000e+02 0.000000000000000000e+00
1.740000000000000000e+02 0.000000000000000000e+00
1.750000000000000000e+02 0.000000000000000000e+00
1.760000000000000000e+02 0.000000000000000000e+00
1.770000000000000000e+02 0.000000000000000000e+00
1.780000000000000000e+02 0.000000000000000000e+00
1.790000000000000000e+02 0.000000000000000000e+00
1.800000000000000000e+02 0.000000000000000000e+00
1.810000000000000000e+02 0.000000000000000000e+00
1.820000000000000000e+02 0.000000000000000000e+00
1.830000000000000000e+02 0.000000000000000000e+00
1.840000000000000000e+02 0.000000000000000000e+00
1.850000000000000000e+02 0.000000000000000000e+00
1.860000000000000000e+02 0.000000000000000000e+00
1.870000000000000000e+02 0.000000000000000000e+00
1.880000000000000000e+02 0.000000000000000000e+00
1.890000000000000000e+02 0.000000000000000000e+00
1.900000000000000000e+02 0.000000000000000000e+00
1.910000000000000000e+02 0.000000000000000000e+00
1.920000000000000000e+02 0.000000000000000000e+00
1.930000000000000000e+02 0.000000000000000000e+00
1.940000000000000000e+02 0.000000000000000000e+00
1.950000000000000000e+02 0.000000000000000000e+00
1.960000000000000000e+02 0.000000000000000000e+00
1.970000000000000000e+02 0.000000000000000000e+00
1.980000000000000000e+02 0.000000000000000000e+00
1.990000000000000000e+02 0.000000000000000000e+00
2.000000000000000000e+02 0.000000000000000000e+00
2.010000000000000000e+02 0.000000000000000000e+00
2.020000000000000000e+02 0.000000000000000000e+00
2.030000000000000000e+02 0.000000000000000000e+00
2.040000000000000000e+02 0.000000000000000000e+00
2.050000000000000000e+02 0.000000000000000000e+00
2.060000000000000000e+02 0.000000000000000000e+00
2.070000000000000000e+02 0.000000000000000000e+00
2.080000000000000000e+02 0.000000000000000000e+00
2.090000000000000000e+02 0.000000000000000000e+00
2.100000000000000000e+02 0.000000000000000000e+00
2.110000000000000000e+02 0.000000000000000000e+00
2.120000000000000000e+02 0.000000000000000000e+00
2.130000000000000000e+02 0.000000000000000000e+00
2.140000000000000000e+02 0.000000000000000000e+00
2.150000000000000000e+02 0.000000000000000000e+00
2.160000000000000000e+02 0.000000000000000000e+00
2.170000000000000000e+02 0.000000000000000000e+00
2.180000000000000000e+02 0.000000000000000000e+00
2.190000000000000000e+02 0.000000000000000000e+00
2.200000000000000000e+02 0.000000000000000000e+00
2.210000000000000000e+02 0.000000000000000000e+00
2.220000000000000000e+02 0.000000000000000000e+00
2.230000000000000000e+02 0.000000000000000000e+00
2.240000000000000000e+02 0.000000000000000000e+00
2.250000000000000000e+02 0.000000000000000000e+00
2.260000000000000000e+02 0.000000000000000000e+00
2.270000000000000000e+02 1.925776056004964820e+00
2.280000000000000000e+02 1.508703079651505075e+00
2.290000000000000000e+02 9.662430268803076649e-02
2.300000000000000000e+02 2.926797818709806265e+00
2.310000000000000000e+02 1.855646523849044716e+00
2.320000000000000000e+02 3.753508021157592189e-01
2.330000000000000000e+02 2.052442169052072440e+00
2.340000000000000000e+02 3.366995619037743470e+00
2.350000000000000000e+02 2.337283753578109913e+00
2.360000000000000000e+02 2.017970660236465097e+00
2.370000000000000000e+02 3.374234920779771496e+00
2.380000000000000000e+02 5.086131032151005371e+00
2.390000000000000000e+02 3.715407716241456715e+00
2.400000000000000000e+02 2.434034732268761658e+00
2.410000000000000000e+02 2.458381449284380516e+00
2.420000000000000000e+02 2.852602146442647868e+00
2.430000000000000000e+02 3.826296313420450179e+00
2.440000000000000000e+02 3.893449003111395967e+00
2.450000000000000000e+02 2.689343510889835365e+00
2.460000000000000000e+02 1.937334825762295765e+00
2.470000000000000000e+02 3.791745526031941704e+00
2.480000000000000000e+02 3.915716545115121683e+00
2.490000000000000000e+02 4.288529425845267973e+00
2.500000000000000000e+02 2.560716373988768169e+00
2.510000000000000000e+02 1.313867691968469975e-01
2.520000000000000000e+02 1.972744607757707991e+00
2.530000000000000000e+02 2.216881560672053109e+00
2.540000000000000000e+02 2.880164507473284008e-01
2.550000000000000000e+02 3.167090821406346457e-01
2.560000000000000000e+02 1.280885614395381511e+00
2.570000000000000000e+02 5.625559404811270037e-01
2.580000000000000000e+02 1.928366078406934525e+00
2.590000000000000000e+02 2.949726702551342061e+00
2.600000000000000000e+02 2.335089649108231580e+00
2.610000000000000000e+02 1.102000438498244250e+00
2.620000000000000000e+02 1.239134929060351720e+00
2.630000000000000000e+02 1.933940766486927920e+00
2.640000000000000000e+02 2.739005031736152507e+00
2.650000000000000000e+02 2.835745250570427700e+00
2.660000000000000000e+02 5.138675785980839628e-01
2.670000000000000000e+02 2.018911693839469113e+00
2.680000000000000000e+02 3.938272257622901229e+00
2.690000000000000000e+02 4.250833181045204689e+00
2.700000000000000000e+02 3.167778396183379641e+00
2.710000000000000000e+02 4.148407974694041656e+00
2.720000000000000000e+02 2.586090322754658111e+00
2.730000000000000000e+02 1.225649245177364399e+00
2.740000000000000000e+02 1.756197755030082908e+00
2.750000000000000000e+02 1.932292438705665916e+00
2.760000000000000000e+02 1.629320035469821626e+00
2.770000000000000000e+02 2.558748772246424608e+00
2.780000000000000000e+02 4.401985830118211318e+00
2.790000000000000000e+02 5.338671768512766924e+00
2.800000000000000000e+02 3.262210848786602391e+00
2.810000000000000000e+02 3.590052163658989492e+00
2.820000000000000000e+02 6.339245842563757449e+00
2.830000000000000000e+02 7.250016821198935091e+00
2.840000000000000000e+02 3.471099047707935537e+00
2.850000000000000000e+02 3.121272576851275904e+00
2.860000000000000000e+02 3.042366470344254559e+00
2.870000000000000000e+02 1.992266342874894569e+00
2.880000000000000000e+02 1.158045462352217836e+00
2.890000000000000000e+02 2.484381207382817536e+00
2.900000000000000000e+02 3.422955133997112043e+00
2.910000000000000000e+02 3.891943016179221004e+00
2.920000000000000000e+02 3.367495772915812147e+00
2.930000000000000000e+02 2.419266290396188790e+00
2.940000000000000000e+02 3.026014582659210639e+00
2.950000000000000000e+02 2.445719144753220498e+00
2.960000000000000000e+02 2.519517563161159490e+00
2.970000000000000000e+02 3.866293005185611253e+00
2.980000000000000000e+02 5.177161974486621077e+00
2.990000000000000000e+02 4.601615670192910734e+00
3.000000000000000000e+02 3.835876927193537345e+00
3.010000000000000000e+02 2.854938315494701229e+00
3.020000000000000000e+02 1.857681071561914532e+00
3.030000000000000000e+02 1.550386261149137690e+00
3.040000000000000000e+02 2.741494105994626729e+00
3.050000000000000000e+02 2.738369028624758617e+00
3.060000000000000000e+02 2.401874448247251603e+00
3.070000000000000000e+02 2.314399437461099218e+00
3.080000000000000000e+02 1.705555506741328387e+00
3.090000000000000000e+02 1.340026263223395908e+00
3.100000000000000000e+02 2.597074031113835169e+00
3.110000000000000000e+02 3.550326213026357536e+00
3.120000000000000000e+02 3.204849647863967643e+00
3.130000000000000000e+02 3.727771542833440588e+00
3.140000000000000000e+02 2.994667365899211120e+00
3.150000000000000000e+02 1.932274282455425984e+00
3.160000000000000000e+02 3.378403276291199298e+00
3.170000000000000000e+02 6.304121944202464078e+00
3.180000000000000000e+02 2.601985525922859477e+00
3.190000000000000000e+02 2.467497980087125065e+00
3.200000000000000000e+02 3.805802869114289333e+00
3.210000000000000000e+02 3.904233998548312545e+00
3.220000000000000000e+02 2.814539435386834931e+00
3.230000000000000000e+02 1.478568711885494658e+00
3.240000000000000000e+02 5.162859037336744450e+00
3.250000000000000000e+02 5.942441400331809120e+00
3.260000000000000000e+02 3.489882591371084253e+00
3.270000000000000000e+02 3.771095599045830582e+00
3.280000000000000000e+02 4.033916287492226083e+00
3.290000000000000000e+02 2.573414831985012086e+00
3.300000000000000000e+02 6.216225449077172893e-01
3.310000000000000000e+02 3.487000016594033469e-01
3.320000000000000000e+02 1.797170460485357779e-01
3.330000000000000000e+02 1.022487316739261187e+00
3.340000000000000000e+02 1.606739013690102080e+00
3.350000000000000000e+02 1.346791062642617387e+00
3.360000000000000000e+02 1.153596744658786477e+00
3.370000000000000000e+02 2.870386411325448694e+00
3.380000000000000000e+02 1.839932608668606751e+00
3.390000000000000000e+02 1.563805736569184646e+00
3.400000000000000000e+02 2.598256544907707521e+00
3.410000000000000000e+02 3.257888131480697780e+00
3.420000000000000000e+02 1.235644169259464853e+00
3.430000000000000000e+02 1.230498735117205200e+00
3.440000000000000000e+02 1.189968455412695025e+00
3.450000000000000000e+02 9.732142130263391477e-01
3.460000000000000000e+02 1.790405598631028106e+00
3.470000000000000000e+02 3.708939912484439994e+00
3.480000000000000000e+02 3.241702208048145462e+00
3.490000000000000000e+02 1.956494350134856619e+00
3.500000000000000000e+02 7.602097716715112696e-01
3.510000000000000000e+02 2.656198487865442104e-01
3.520000000000000000e+02 1.231720761252881768e+00
3.530000000000000000e+02 1.829798674134010650e+00
3.540000000000000000e+02 2.540530462559636327e+00
3.550000000000000000e+02 1.234811780174202012e+00
3.560000000000000000e+02 1.676637302426894349e+00
3.570000000000000000e+02 2.383855051856461849e+00
3.580000000000000000e+02 1.472436296350039253e+00
3.590000000000000000e+02 1.402852914955428298e+00
3.600000000000000000e+02 2.439502399502195829e+00
3.610000000000000000e+02 2.694619419742852795e+00
3.620000000000000000e+02 1.150176686787016678e+00
3.630000000000000000e+02 8.296048168429861480e-01
3.640000000000000000e+02 1.795211060568334238e+00
3.650000000000000000e+02 2.192705342252662337e+00
3.660000000000000000e+02 1.236377141879289265e+00
3.670000000000000000e+02 1.092470269861023136e+00
3.680000000000000000e+02 2.315491519186879898e+00
3.690000000000000000e+02 2.938069329184817668e+00
3.700000000000000000e+02 2.602913431860606863e+00
3.710000000000000000e+02 2.118782633893383061e+00
3.720000000000000000e+02 2.218035103298069632e+00
3.730000000000000000e+02 2.690300903754413220e+00
3.740000000000000000e+02 2.188517451151204440e+00
3.750000000000000000e+02 1.654029235428334355e+00
3.760000000000000000e+02 2.185054032565864279e+00
3.770000000000000000e+02 1.534868258867441160e+00
3.780000000000000000e+02 5.343565201161253331e-01
3.790000000000000000e+02 1.538256092096998984e-01
3.800000000000000000e+02 2.264092748778140374e-01
3.810000000000000000e+02 3.250107934467064141e-01
3.820000000000000000e+02 5.473959338311531475e-01
3.830000000000000000e+02 6.333159825762284534e-01
3.840000000000000000e+02 5.716781895479081665e-01
3.850000000000000000e+02 4.817460937564827517e-01
3.860000000000000000e+02 8.072860775772555675e-01
3.870000000000000000e+02 1.875129436540853511e+00
3.880000000000000000e+02 2.544344823273180012e+00
3.890000000000000000e+02 3.170726330844219287e+00
3.900000000000000000e+02 3.277691992534214283e+00
3.910000000000000000e+02 2.227284949180649232e+00
3.920000000000000000e+02 3.705593982576215195e-01
3.930000000000000000e+02 5.096498805227107631e-01
3.940000000000000000e+02 4.719114295789560432e-01
3.950000000000000000e+02 1.757247414229420990e+00
3.960000000000000000e+02 1.774836116573350164e+00
3.970000000000000000e+02 3.547127554448926134e-01
3.980000000000000000e+02 6.221158973242173484e-01
3.990000000000000000e+02 2.184138512263134324e-01
4.000000000000000000e+02 1.733573150798684848e-01
4.010000000000000000e+02 2.756573385189752257e-01
4.020000000000000000e+02 2.735815120524172361e-02
4.030000000000000000e+02 9.452469176519212590e-02
4.040000000000000000e+02 1.112606145405492519e+00
4.050000000000000000e+02 1.532056438913087293e+00
4.060000000000000000e+02 8.396183565650298108e-01
4.070000000000000000e+02 4.400011111571976441e-01
4.080000000000000000e+02 1.673641995436613850e-01
4.090000000000000000e+02 1.315185455299729411e-01
4.100000000000000000e+02 5.398706843633601510e-02
4.110000000000000000e+02 1.131841351443700905e-01
4.120000000000000000e+02 4.948943509645328809e-01
4.130000000000000000e+02 2.143023678971398560e-01
4.140000000000000000e+02 1.074232407176948012e+00
4.150000000000000000e+02 1.423247059116360402e+00
4.160000000000000000e+02 1.350000907714637988e+00
4.170000000000000000e+02 1.972546715411736651e+00
4.180000000000000000e+02 3.584442526446721122e-01
4.190000000000000000e+02 1.206464232109514034e+00
4.200000000000000000e+02 1.684613118855017078e+00
4.210000000000000000e+02 9.658841329599876513e-01
4.220000000000000000e+02 5.811029769757347641e-01
4.230000000000000000e+02 1.960740533914124839e+00
4.240000000000000000e+02 1.142977822028637069e+00
4.250000000000000000e+02 8.195565370255228910e-01
4.260000000000000000e+02 1.538344936942547037e+00
4.270000000000000000e+02 1.582367257208048050e+00
4.280000000000000000e+02 6.230190779920992128e-01
4.290000000000000000e+02 1.948490665836951075e-01
4.300000000000000000e+02 1.751009663347875334e+00
4.310000000000000000e+02 3.048021107031750887e+00
4.320000000000000000e+02 2.670261594275021633e+00
4.330000000000000000e+02 1.855823301119877033e+00
4.340000000000000000e+02 3.031595756067194891e+00
4.350000000000000000e+02 2.555746364032390971e+00
4.360000000000000000e+02 1.630807698465360778e+00
4.370000000000000000e+02 1.792142545737386516e+00
4.380000000000000000e+02 2.646776962663348165e+00
4.390000000000000000e+02 1.964274467855667394e+00
4.400000000000000000e+02 1.893574944409872840e+00
4.410000000000000000e+02 1.421725387264061169e+00
4.420000000000000000e+02 1.429643503110748615e+00
4.430000000000000000e+02 2.740659966397020586e+00
4.440000000000000000e+02 3.177239331259074984e+00
4.450000000000000000e+02 1.440417924289557394e+00
4.460000000000000000e+02 2.997119570006262279e+00
4.470000000000000000e+02 4.017699206596126338e+00
4.480000000000000000e+02 2.309336506533935740e+00
4.490000000000000000e+02 1.175041199128801228e+00
4.500000000000000000e+02 1.285149928230674199e+00
4.510000000000000000e+02 3.433891875751872824e+00
4.520000000000000000e+02 4.154541834474195561e+00
4.530000000000000000e+02 3.778007189587224701e+00
4.540000000000000000e+02 4.633944122173818236e+00
4.550000000000000000e+02 3.868418405724966203e+00
4.560000000000000000e+02 3.921055362165520197e+00
4.570000000000000000e+02 3.548123309894214206e+00
4.580000000000000000e+02 2.691549216552588497e+00
4.590000000000000000e+02 2.675741495230150591e+00
4.600000000000000000e+02 6.148357850860819873e+00
4.610000000000000000e+02 5.626124141879277119e+00
4.620000000000000000e+02 6.546429377436753683e+00
4.630000000000000000e+02 6.585494471064050614e+00
4.640000000000000000e+02 4.279172124040642622e+00
4.650000000000000000e+02 3.613239697635838965e+00
4.660000000000000000e+02 3.541624359054140303e+00
4.670000000000000000e+02 4.008117372329401462e+00
4.680000000000000000e+02 3.024627266072188014e+00
4.690000000000000000e+02 2.592679965567281641e+00
4.700000000000000000e+02 4.612669156813962168e+00
4.710000000000000000e+02 2.678989744089601999e+00
4.720000000000000000e+02 4.531351322339739696e+00
4.730000000000000000e+02 5.304311953536623214e+00
4.740000000000000000e+02 4.864043804604853527e+00
4.750000000000000000e+02 4.549417693217182368e+00
4.760000000000000000e+02 3.317754801286050714e+00
4.770000000000000000e+02 2.629503367143741777e+00
4.780000000000000000e+02 2.134410242065960084e+00
4.790000000000000000e+02 1.204619447417552669e+00
4.800000000000000000e+02 2.745337622899760022e-01
4.810000000000000000e+02 1.138909914368365639e-01
4.820000000000000000e+02 1.077546909354918370e-01
4.830000000000000000e+02 2.038189205559076012e+00
4.840000000000000000e+02 1.366678687616629251e+00
4.850000000000000000e+02 3.994614324828956731e-01
4.860000000000000000e+02 4.657140817257975907e-01
4.870000000000000000e+02 1.168574098734651984e-01
4.880000000000000000e+02 1.514818073342965032e-01
4.890000000000000000e+02 6.019583602986808835e-01
4.900000000000000000e+02 1.077201716448871194e+00
4.910000000000000000e+02 1.114117855454159756e+00
4.920000000000000000e+02 7.102163281476978618e-01
4.930000000000000000e+02 2.706946894212798327e+00
4.940000000000000000e+02 1.554012825798424480e+00
4.950000000000000000e+02 4.596971551545333545e-01
4.960000000000000000e+02 4.792500392034852452e-01
4.970000000000000000e+02 2.404056370800467801e-01
4.980000000000000000e+02 1.549963808338515880e-01
4.990000000000000000e+02 2.995247141671888436e-01
5.000000000000000000e+02 1.167940976768327754e+00
5.010000000000000000e+02 1.679420073843601369e+00
5.020000000000000000e+02 1.450926215930296470e+00
5.030000000000000000e+02 1.472049602364621679e+00
5.040000000000000000e+02 3.367755646131499692e+00
5.050000000000000000e+02 4.077608069072807595e+00
5.060000000000000000e+02 3.453626189794660295e+00
5.070000000000000000e+02 3.994843911014275051e+00
5.080000000000000000e+02 5.294832486413602268e+00
5.090000000000000000e+02 5.379492375025924922e+00
5.100000000000000000e+02 7.295166792366708286e+00
5.110000000000000000e+02 7.375205081518369177e+00
5.120000000000000000e+02 7.860026665214622454e+00
5.130000000000000000e+02 8.276910013690082835e+00
5.140000000000000000e+02 8.356661974077214339e+00
5.150000000000000000e+02 9.957784902509814629e+00
5.160000000000000000e+02 1.062659170504045214e+01
5.170000000000000000e+02 9.541130086686059997e+00
5.180000000000000000e+02 8.809564027172786638e+00
5.190000000000000000e+02 8.982653332088775144e+00
5.200000000000000000e+02 8.957611655744504020e+00
5.210000000000000000e+02 7.678268006845042848e+00
5.220000000000000000e+02 7.996446535158686864e+00
5.230000000000000000e+02 7.994927936955609660e+00
5.240000000000000000e+02 7.803930241028835368e+00
5.250000000000000000e+02 6.450341233353994674e+00
5.260000000000000000e+02 3.676862341630604103e+00
5.270000000000000000e+02 8.880743048122846872e+00
5.280000000000000000e+02 6.862825638664058481e+00
5.290000000000000000e+02 4.388171513171574389e+00
5.300000000000000000e+02 4.047845541381443368e+00
5.310000000000000000e+02 4.364958255548646804e+00
5.320000000000000000e+02 4.319178601327531730e+00
5.330000000000000000e+02 3.474555028417350755e+00
5.340000000000000000e+02 3.833484437461091687e+00
5.350000000000000000e+02 4.894768268201622696e+00
5.360000000000000000e+02 4.900955433520013393e+00
5.370000000000000000e+02 3.643739111180251733e+00
5.380000000000000000e+02 3.931018465878457047e+00
5.390000000000000000e+02 3.818278891723701385e+00
5.400000000000000000e+02 2.796074793031920080e+00
5.410000000000000000e+02 2.437935011408436825e+00
5.420000000000000000e+02 2.484717641153270318e+00
5.430000000000000000e+02 2.248983612608900007e+00
5.440000000000000000e+02 3.778625626011227201e+00
5.450000000000000000e+02 3.780946916822221837e+00
5.460000000000000000e+02 2.057827145997468854e+00
5.470000000000000000e+02 1.695635152043119209e+00
5.480000000000000000e+02 2.541221943995025434e+00
5.490000000000000000e+02 2.360007875155534673e+00
5.500000000000000000e+02 2.701708809375646947e+00
5.510000000000000000e+02 3.250747628915160892e+00
5.520000000000000000e+02 2.911166041061788334e+00
5.530000000000000000e+02 3.575665520224058369e+00
5.540000000000000000e+02 5.535810880730145378e+00
5.550000000000000000e+02 6.044606184401549065e+00
5.560000000000000000e+02 4.641971631819119537e+00
5.570000000000000000e+02 5.323382059738645644e+00
5.580000000000000000e+02 4.538370731798345048e+00
5.590000000000000000e+02 4.813938894835120053e+00
5.600000000000000000e+02 6.740205198506533435e+00
5.610000000000000000e+02 5.872467713752319796e+00
5.620000000000000000e+02 5.040985158058493454e+00
5.630000000000000000e+02 5.851887326280849067e+00
5.640000000000000000e+02 6.086611987761875397e+00
5.650000000000000000e+02 6.875179066168845665e+00
5.660000000000000000e+02 7.831370267579339739e+00
5.670000000000000000e+02 5.759498197261978092e+00
5.680000000000000000e+02 6.024333681601325985e+00
5.690000000000000000e+02 6.293522311074241316e+00
5.700000000000000000e+02 6.402947005600498009e+00
5.710000000000000000e+02 6.662133353453636886e+00
5.720000000000000000e+02 6.764654211115723292e+00
5.730000000000000000e+02 5.969727436838831558e+00
5.740000000000000000e+02 4.926883056212412626e+00
5.750000000000000000e+02 4.725474261302363033e+00
5.760000000000000000e+02 6.266876719975096321e+00
5.770000000000000000e+02 7.334162472723499526e+00
5.780000000000000000e+02 6.289263416839490084e+00
5.790000000000000000e+02 4.166527497199769670e+00
5.800000000000000000e+02 3.228104802738009482e+00
5.810000000000000000e+02 4.318131155569393975e+00
5.820000000000000000e+02 5.363101430408629966e+00
5.830000000000000000e+02 4.325441507363602334e+00
5.840000000000000000e+02 2.538419434971990629e+00
5.850000000000000000e+02 3.774371085874286269e+00
5.860000000000000000e+02 4.106858713544920825e+00
5.870000000000000000e+02 5.566927793196412289e+00
5.880000000000000000e+02 6.637551878863297006e+00
5.890000000000000000e+02 5.300420132545200502e+00
5.900000000000000000e+02 2.856163856876193563e+00
5.910000000000000000e+02 2.786788405724936801e+00
5.920000000000000000e+02 5.296125331673846581e+00
5.930000000000000000e+02 5.212718888197482414e+00
5.940000000000000000e+02 5.042785104542615748e+00
5.950000000000000000e+02 5.976051172335097306e+00
5.960000000000000000e+02 6.371510302219455468e+00
5.970000000000000000e+02 4.668750879900434470e+00
5.980000000000000000e+02 6.270350186229780576e+00
5.990000000000000000e+02 3.740517143746044937e+00
6.000000000000000000e+02 3.167025091889672961e+00
6.010000000000000000e+02 3.606162217382291590e+00
6.020000000000000000e+02 3.496838425637826209e+00
6.030000000000000000e+02 3.698335301182315238e+00
6.040000000000000000e+02 2.268250578718144173e+00
6.050000000000000000e+02 1.595554165110987910e+00
6.060000000000000000e+02 1.532232355942747981e+00
6.070000000000000000e+02 1.415091817465261803e+00
6.080000000000000000e+02 1.712151644057207101e+00
6.090000000000000000e+02 2.394362488593988481e+00
6.100000000000000000e+02 6.312770257208061286e-01
6.110000000000000000e+02 1.270040574984441450e+00
6.120000000000000000e+02 5.345422847581966508e-01
6.130000000000000000e+02 6.061318394523864672e-01
6.140000000000000000e+02 9.657581261149457141e-01
6.150000000000000000e+02 3.950608547075847188e+00
6.160000000000000000e+02 2.650946418585287567e+00
6.170000000000000000e+02 6.797958425637362634e-01
6.180000000000000000e+02 1.792203518456993105e+00
6.190000000000000000e+02 3.927688544492746736e+00
6.200000000000000000e+02 3.250751841319365454e+00
6.210000000000000000e+02 6.323494922214816238e-01
6.220000000000000000e+02 1.680760212196687808e+00
6.230000000000000000e+02 5.193654036506142324e-01
6.240000000000000000e+02 2.425139451566050486e+00
6.250000000000000000e+02 3.266935781165728248e+00
6.260000000000000000e+02 3.688425373988794220e+00
6.270000000000000000e+02 3.069273889856857451e+00
6.280000000000000000e+02 1.675748551752749060e+00
6.290000000000000000e+02 3.697034441817069528e+00
6.300000000000000000e+02 6.152044413607198337e+00
6.310000000000000000e+02 6.004522797759770825e+00
6.320000000000000000e+02 6.771305809790556296e+00
6.330000000000000000e+02 8.210871426052728239e+00
6.340000000000000000e+02 7.993628199751061203e+00
6.350000000000000000e+02 7.592177938199931475e+00
6.360000000000000000e+02 8.282025897946441617e+00
6.370000000000000000e+02 9.655684919311294578e+00
6.380000000000000000e+02 1.044059732268769736e+01
6.390000000000000000e+02 1.100532771624142825e+01
6.400000000000000000e+02 1.192323876166768315e+01
6.410000000000000000e+02 1.259631270427208705e+01
6.420000000000000000e+02 1.158948261771416455e+01
6.430000000000000000e+02 1.132605753785521685e+01
6.440000000000000000e+02 9.742410212359970956e+00
6.450000000000000000e+02 1.065142519290611922e+01
6.460000000000000000e+02 1.285384788010788171e+01
6.470000000000000000e+02 1.314498830775615623e+01
6.480000000000000000e+02 1.480372395561082044e+01
6.490000000000000000e+02 1.247318848786555812e+01
6.500000000000000000e+02 1.375127113876797402e+01
6.510000000000000000e+02 1.320224083385182468e+01
6.520000000000000000e+02 1.364018367143755128e+01
6.530000000000000000e+02 1.579411235843188699e+01
6.540000000000000000e+02 1.414173381456131473e+01
6.550000000000000000e+02 1.453805762289983505e+01
6.560000000000000000e+02 1.584332615017630808e+01
6.570000000000000000e+02 1.661544055590126590e+01
6.580000000000000000e+02 1.728165285003110796e+01
6.590000000000000000e+02 1.870014050404483896e+01
6.600000000000000000e+02 1.979304336237295558e+01
6.610000000000000000e+02 1.888253707175448071e+01
6.620000000000000000e+02 2.141916373988808076e+01
6.630000000000000000e+02 2.463343378344745460e+01
6.640000000000000000e+02 2.476107634176688066e+01
6.650000000000000000e+02 2.507614387264059985e+01
6.660000000000000000e+02 2.816133554034437481e+01
6.670000000000000000e+02 3.116044287847369887e+01
6.680000000000000000e+02 3.320270344741759061e+01
6.690000000000000000e+02 3.544948323791746958e+01
6.700000000000000000e+02 3.709298912899213718e+01
6.710000000000000000e+02 3.917895893175687405e+01
6.720000000000000000e+02 4.140722123210952788e+01
6.730000000000000000e+02 4.313537407507262600e+01
6.740000000000000000e+02 4.645023103712927082e+01
6.750000000000000000e+02 5.090926876996474704e+01
6.760000000000000000e+02 5.302245587844847563e+01
6.770000000000000000e+02 5.392521022401991360e+01
6.780000000000000000e+02 5.408969118232732143e+01
6.790000000000000000e+02 5.566366109106002114e+01
6.800000000000000000e+02 6.001409711470650166e+01
6.810000000000000000e+02 6.136559202862476070e+01
6.820000000000000000e+02 6.131331690728064387e+01
6.830000000000000000e+02 6.172878333333333245e+01
6.840000000000000000e+02 6.385303122588672409e+01
6.850000000000000000e+02 6.430134171333746451e+01
6.860000000000000000e+02 6.264464347853142812e+01
6.870000000000000000e+02 6.283430872640529685e+01
6.880000000000000000e+02 6.489010661895872545e+01
6.890000000000000000e+02 6.163189434142292811e+01
6.900000000000000000e+02 6.102469141642470873e+01
6.910000000000000000e+02 6.089327771624144958e+01
6.920000000000000000e+02 5.950194945654430256e+01
6.930000000000000000e+02 5.754660742015763475e+01
6.940000000000000000e+02 5.516221080688654865e+01
6.950000000000000000e+02 5.358020891101434557e+01
6.960000000000000000e+02 4.979062206138535629e+01
6.970000000000000000e+02 4.721629978427714036e+01
6.980000000000000000e+02 4.468856746940474522e+01
6.990000000000000000e+02 4.247397399004563567e+01
7.000000000000000000e+02 4.150088530802739228e+01
7.010000000000000000e+02 4.010243832607350356e+01
7.020000000000000000e+02 3.672970581414644187e+01
7.030000000000000000e+02 3.467904539307198064e+01
7.040000000000000000e+02 3.317686148102053778e+01
7.050000000000000000e+02 3.170990732420661118e+01
7.060000000000000000e+02 3.126953326073430262e+01
7.070000000000000000e+02 3.084285338311548941e+01
7.080000000000000000e+02 2.822137158058496098e+01
7.090000000000000000e+02 2.916158141256998704e+01
7.100000000000000000e+02 2.802314720804819359e+01
7.110000000000000000e+02 2.608455275461525957e+01
7.120000000000000000e+02 2.597920457166559416e+01
7.130000000000000000e+02 2.618060515868080529e+01
7.140000000000000000e+02 2.550961345364032340e+01
7.150000000000000000e+02 2.658068401991286578e+01
7.160000000000000000e+02 2.665659399419331166e+01
7.170000000000000000e+02 2.466827152665423029e+01
7.180000000000000000e+02 2.522436117610453010e+01
7.190000000000000000e+02 2.573302428245541407e+01
7.200000000000000000e+02 2.543029491599253689e+01
7.210000000000000000e+02 2.608460022194567074e+01
7.220000000000000000e+02 2.748449819162167884e+01
7.230000000000000000e+02 2.834418075917859525e+01
7.240000000000000000e+02 2.713398611698812246e+01
7.250000000000000000e+02 2.796948142264611548e+01
7.260000000000000000e+02 2.855507930512344927e+01
7.270000000000000000e+02 2.883993113876783809e+01
7.280000000000000000e+02 3.063903283136270872e+01
7.290000000000000000e+02 3.251519514416099099e+01
7.300000000000000000e+02 3.191848551130464173e+01
7.310000000000000000e+02 3.459836626218623934e+01
7.320000000000000000e+02 3.575427626011202165e+01
7.330000000000000000e+02 3.473832202240201639e+01
7.340000000000000000e+02 3.353884352001659153e+01
7.350000000000000000e+02 3.366373855009334903e+01
7.360000000000000000e+02 3.446136962663347703e+01
7.370000000000000000e+02 3.345528809583070995e+01
7.380000000000000000e+02 3.334652214063472542e+01
7.390000000000000000e+02 3.189472359054132156e+01
7.400000000000000000e+02 2.865205750466726542e+01
7.410000000000000000e+02 2.633813891723701772e+01
7.420000000000000000e+02 2.604711175445872939e+01
7.430000000000000000e+02 2.546560171748609136e+01
7.440000000000000000e+02 2.291881402406152191e+01
7.450000000000000000e+02 2.022647420157603904e+01
7.460000000000000000e+02 1.985521513378967029e+01
7.470000000000000000e+02 1.824844965152463416e+01
7.480000000000000000e+02 1.673836250933223369e+01
7.490000000000000000e+02 1.593461049782202643e+01
7.500000000000000000e+02 1.470719757311761100e+01
7.510000000000000000e+02 1.486667465781831865e+01
7.520000000000000000e+02 1.179517018460892963e+01
7.530000000000000000e+02 1.137634450114085105e+01
7.540000000000000000e+02 1.037665058067184809e+01
7.550000000000000000e+02 8.840539535158615791e+00
7.560000000000000000e+02 7.025514875129567294e+00
7.570000000000000000e+02 5.615866567724523861e+00
7.580000000000000000e+02 6.116043713130071779e+00
7.590000000000000000e+02 6.086401140634686513e+00
7.600000000000000000e+02 4.179275148102078674e+00
7.610000000000000000e+02 5.634131101223749383e+00
7.620000000000000000e+02 4.511787881145109758e+00
7.630000000000000000e+02 1.523542140219877217e+00
7.640000000000000000e+02 3.466040634723126512e-01
7.650000000000000000e+02 8.732769147479773064e-01
7.660000000000000000e+02 9.855378427710653755e-02
7.670000000000000000e+02 4.631330404480475393e-01
7.680000000000000000e+02 2.473798057871848144e+00
7.690000000000000000e+02 3.757657747355992450e-01
7.700000000000000000e+02 1.472135531424992205e+00
7.710000000000000000e+02 1.272523760058100972e+00
7.720000000000000000e+02 1.948804742169614412e+00
7.730000000000000000e+02 4.929122632234026469e-01
7.740000000000000000e+02 1.044459728743262872e+00
7.750000000000000000e+02 5.329664619373386536e-01
7.760000000000000000e+02 4.460176869944058042e-01
7.770000000000000000e+02 1.185394108461240048e+00
7.780000000000000000e+02 7.404999713752498103e-01
7.790000000000000000e+02 5.810754246006959445e-01
7.800000000000000000e+02 7.654234267938664349e-01
7.810000000000000000e+02 1.222795680149347142e+00
7.820000000000000000e+02 4.010891779713779970e-01
7.830000000000000000e+02 3.819209881767290926e-01
7.840000000000000000e+02 9.854706697780623026e-01
7.850000000000000000e+02 4.790381640738438085e-01
7.860000000000000000e+02 4.111973869495743616e-01
7.870000000000000000e+02 3.896076720597351217e-01
7.880000000000000000e+02 6.359648915598425933e-02
7.890000000000000000e+02 7.796067826177220939e-01
7.900000000000000000e+02 5.700603721219612563e-01
7.910000000000000000e+02 1.479126705040438861e+00
7.920000000000000000e+02 2.205932072806468636e+00
7.930000000000000000e+02 2.534576487658163568e+00
7.940000000000000000e+02 3.470005101431230532e+00
7.950000000000000000e+02 3.729415871395974857e+00
7.960000000000000000e+02 2.723702727442437244e+00
7.970000000000000000e+02 2.087021561592713681e+00
7.980000000000000000e+02 2.804660684505286827e-01
7.990000000000000000e+02 1.752864427488034227e-01
8.000000000000000000e+02 1.444303825591029433e+00
8.010000000000000000e+02 2.241829622899813579e+00
8.020000000000000000e+02 1.446707680149362574e+00
8.030000000000000000e+02 5.723129452509323478e-01
8.040000000000000000e+02 8.992432667496370602e-01
8.050000000000000000e+02 7.246427878033558923e-01
8.060000000000000000e+02 3.383497138324335296e+00
8.070000000000000000e+02 3.268884132337701143e+00
8.080000000000000000e+02 2.214605656087961894e+00
8.090000000000000000e+02 2.434111541796306621e+00
8.100000000000000000e+02 3.110733018668326189e+00
8.110000000000000000e+02 2.634629479361132898e+00
8.120000000000000000e+02 1.491348711470650956e+00
8.130000000000000000e+02 1.429231537647784878e+00
8.140000000000000000e+02 8.782041306782906176e-01
8.150000000000000000e+02 4.104148846919684068e+00
8.160000000000000000e+02 5.105323159510501085e+00
8.170000000000000000e+02 4.489811943787589854e+00
8.180000000000000000e+02 4.639260884463806356e+00
8.190000000000000000e+02 4.336637706907286116e+00
8.200000000000000000e+02 4.476898562746303156e+00
8.210000000000000000e+02 5.420435265297639305e+00
8.220000000000000000e+02 5.603531089193114489e+00
8.230000000000000000e+02 6.849270425342172786e+00
8.240000000000000000e+02 4.856162263223421149e+00
8.250000000000000000e+02 4.467756437668508163e+00
8.260000000000000000e+02 5.845056392368316089e+00
8.270000000000000000e+02 4.920042734702351872e+00
8.280000000000000000e+02 5.223197192906024355e+00
8.290000000000000000e+02 3.945092922646229017e+00
8.300000000000000000e+02 4.374744580377481817e+00
8.310000000000000000e+02 5.135880340593254267e+00
8.320000000000000000e+02 5.899173782247999043e+00
8.330000000000000000e+02 5.454264080273853565e+00
8.340000000000000000e+02 4.189302500103753601e+00
8.350000000000000000e+02 4.426078197013660898e+00
8.360000000000000000e+02 6.660670890686604118e+00
8.370000000000000000e+02 5.815596057871841751e+00
8.380000000000000000e+02 5.166396534536406904e+00
8.390000000000000000e+02 5.096214504252228217e+00
8.400000000000000000e+02 5.388207600497818994e+00
8.410000000000000000e+02 4.468511098942114401e+00
8.420000000000000000e+02 4.540522193528327755e+00
8.430000000000000000e+02 5.658621965152453193e+00
8.440000000000000000e+02 4.411156515660647592e+00
8.450000000000000000e+02 5.620646010993589847e+00
8.460000000000000000e+02 4.647111577473521216e+00
8.470000000000000000e+02 4.720942793403835935e+00
8.480000000000000000e+02 4.499691816635525754e+00
8.490000000000000000e+02 3.739014608046493660e+00
8.500000000000000000e+02 4.069468036092044549e+00
8.510000000000000000e+02 4.586074450528978552e+00
8.520000000000000000e+02 3.682664772246431184e+00
8.530000000000000000e+02 3.608280438705644855e+00
8.540000000000000000e+02 4.457630700684505953e+00
8.550000000000000000e+02 3.957858426052685896e+00
8.560000000000000000e+02 4.911706752333541814e+00
8.570000000000000000e+02 4.688263126737192366e+00
8.580000000000000000e+02 4.968596544907743606e+00
8.590000000000000000e+02 6.268660428126955786e+00
8.600000000000000000e+02 5.954744685127550952e+00
8.610000000000000000e+02 5.034418590541351435e+00
8.620000000000000000e+02 5.196220559427501939e+00
8.630000000000000000e+02 3.626697287017884630e+00
8.640000000000000000e+02 5.315791429164058890e+00
8.650000000000000000e+02 4.166491416925856228e+00
8.660000000000000000e+02 3.925171065533043624e+00
8.670000000000000000e+02 4.558693287077389300e+00
8.680000000000000000e+02 3.487528267371951429e+00
8.690000000000000000e+02 2.837689181252583737e+00
8.700000000000000000e+02 3.653522001244552619e+00
8.710000000000000000e+02 3.477776305330846807e+00
8.720000000000000000e+02 3.022565574243049724e+00
8.730000000000000000e+02 3.280515526031952955e+00
8.740000000000000000e+02 3.970499604853776177e+00
8.750000000000000000e+02 5.149595766486993575e+00
8.760000000000000000e+02 5.214441518979432644e+00
8.770000000000000000e+02 4.271653115536192757e+00
8.780000000000000000e+02 4.242979254926367183e+00
8.790000000000000000e+02 4.162783341008072568e+00
8.800000000000000000e+02 3.417007743829048039e+00
8.810000000000000000e+02 2.098621585148348068e+00
8.820000000000000000e+02 1.210281439327943298e+00
8.830000000000000000e+02 3.042101055382775865e+00
8.840000000000000000e+02 5.226513343497188657e+00
8.850000000000000000e+02 5.550361837585565006e+00
8.860000000000000000e+02 4.510646019083202063e+00
8.870000000000000000e+02 2.992574130056000037e+00
8.880000000000000000e+02 4.634447225264477055e+00
8.890000000000000000e+02 2.668871523750243391e+00
8.900000000000000000e+02 3.460401491806685215e+00
8.910000000000000000e+02 3.100599158888196705e+00
8.920000000000000000e+02 4.321253626710937823e+00
8.930000000000000000e+02 5.860496794648425656e+00
8.940000000000000000e+02 5.629664405102654534e+00
8.950000000000000000e+02 3.066762817088275028e+00
8.960000000000000000e+02 2.412071672497569097e-01
8.970000000000000000e+02 2.013479107031747262e+00
8.980000000000000000e+02 1.476340124844439661e+00
8.990000000000000000e+02 1.519125776809969186e-01
9.000000000000000000e+02 6.345640591163757005e-01
9.010000000000000000e+02 7.369587648278614900e-01
9.020000000000000000e+02 4.213178121518074137e-02
9.030000000000000000e+02 5.498106046463412389e-01
9.040000000000000000e+02 1.728502318606072841e+00
9.050000000000000000e+02 9.940791283966108338e-01
9.060000000000000000e+02 1.999975944617299328e+00
9.070000000000000000e+02 1.668774443061598278e+00
9.080000000000000000e+02 1.285840678697364625e+00
9.090000000000000000e+02 1.219387874092511037e+00
9.100000000000000000e+02 1.854652693839461630e+00
9.110000000000000000e+02 1.996727456751710816e+00
9.120000000000000000e+02 2.522736584111170188e+00
9.130000000000000000e+02 3.110846756896906928e+00
9.140000000000000000e+02 2.138885557353249034e+00
9.150000000000000000e+02 1.371790222775362666e+00
9.160000000000000000e+02 1.562931526446794672e+00
9.170000000000000000e+02 1.357033626840902896e+00
9.180000000000000000e+02 2.119928374948154559e+00
9.190000000000000000e+02 1.260528188135241923e+00
9.200000000000000000e+02 2.070473655258223022e+00
9.210000000000000000e+02 3.157162276648699972e+00
9.220000000000000000e+02 2.253624158473352956e+00
9.230000000000000000e+02 7.085591676001079531e-01
9.240000000000000000e+02 1.720546855311113066e-01
9.250000000000000000e+02 7.654861848164198346e-01
9.260000000000000000e+02 1.421576923874706910e+00
9.270000000000000000e+02 1.581592575694732661e+00
9.280000000000000000e+02 1.230783148102059910e+00
9.290000000000000000e+02 1.748903117610718372e-01
9.300000000000000000e+02 6.497773311931678286e-01
9.310000000000000000e+02 1.046770426467548809e+00
9.320000000000000000e+02 8.194967931964155516e-01
9.330000000000000000e+02 1.904392899605886980e+00
9.340000000000000000e+02 1.691067658369639570e+00
9.350000000000000000e+02 2.299669777846917285e+00
9.360000000000000000e+02 1.583198156399091117e+00
9.370000000000000000e+02 2.034259051856462719e+00
9.380000000000000000e+02 8.756196695706561783e-01
9.390000000000000000e+02 6.454425581829916769e-01
9.400000000000000000e+02 2.471906658369620868e-01
9.410000000000000000e+02 8.707299425429844142e-01
9.420000000000000000e+02 1.056318202655100791e+00
9.430000000000000000e+02 1.770215755444890515e+00
9.440000000000000000e+02 1.088726789299047981e+00
9.450000000000000000e+02 6.423144494918230363e-01
9.460000000000000000e+02 8.671004561294400892e-01
9.470000000000000000e+02 4.143114819576785290e-01
9.480000000000000000e+02 7.652846869943986663e-01
9.490000000000000000e+02 1.777157133582253135e+00
9.500000000000000000e+02 1.988102316051468588e+00
9.510000000000000000e+02 2.130594917029702717e+00
9.520000000000000000e+02 3.603358369010610573e+00
9.530000000000000000e+02 3.670613693902986086e+00
9.540000000000000000e+02 2.261601572287937678e+00
9.550000000000000000e+02 2.737323933623768024e+00
9.560000000000000000e+02 3.296347679800899044e+00
9.570000000000000000e+02 2.949596680149371597e+00
9.580000000000000000e+02 2.672670459863113912e+00
9.590000000000000000e+02 2.178493751088988795e+00
9.600000000000000000e+02 2.913578372121927273e+00
9.610000000000000000e+02 3.151552492221593393e+00
9.620000000000000000e+02 1.931346311138768979e+00
9.630000000000000000e+02 2.581782064509438257e+00
9.640000000000000000e+02 1.580016860817258229e+00
9.650000000000000000e+02 2.133691640116178956e+00
9.660000000000000000e+02 3.219315895457403709e+00
9.670000000000000000e+02 5.972481163036758467e+00
9.680000000000000000e+02 4.119719611698673845e+00
9.690000000000000000e+02 2.940730820991492855e+00
9.700000000000000000e+02 2.276559928438026237e+00
9.710000000000000000e+02 4.166539282513812559e+00
9.720000000000000000e+02 5.810026087326416899e+00
9.730000000000000000e+02 3.304515946909926338e+00
9.740000000000000000e+02 1.774150911221802129e+00
9.750000000000000000e+02 2.231478015419783856e-01
9.760000000000000000e+02 1.410238222107008221e+00
9.770000000000000000e+02 3.737240990869193369e-01
9.780000000000000000e+02 1.535949729616843951e-01
9.790000000000000000e+02 4.259132513562716854e-02
9.800000000000000000e+02 7.756118985687810996e-01
9.810000000000000000e+02 1.385246159303050950e+00
9.820000000000000000e+02 2.773794605972709881e+00
9.830000000000000000e+02 3.971029256585749234e+00
9.840000000000000000e+02 1.467453686994332207e+00
9.850000000000000000e+02 1.042085036092057049e+00
9.860000000000000000e+02 3.711791425015553147e-01
9.870000000000000000e+02 5.017750431445627823e-01
9.880000000000000000e+02 3.690533990873233749e-01
9.890000000000000000e+02 7.802406403235275789e-01
9.900000000000000000e+02 1.549890772453853094e+00
9.910000000000000000e+02 2.061149173408012292e+00
9.920000000000000000e+02 2.357417307819994257e+00
9.930000000000000000e+02 8.209735606720605094e-01
9.940000000000000000e+02 1.277129644057255708e+00
9.950000000000000000e+02 1.938910517942340705e+00
9.960000000000000000e+02 2.225480734909769165e+00
9.970000000000000000e+02 1.258631337689252838e+00
9.980000000000000000e+02 1.472877190416929549e+00
9.990000000000000000e+02 1.559944421194523700e+00
1.000000000000000000e+03 1.362460537790681547e+00
1.001000000000000000e+03 5.204416016597341876e-01
1.002000000000000000e+03 8.148013568464534950e-01
1.003000000000000000e+03 1.006496701244790071e+00
1.004000000000000000e+03 2.995755186722096064e-01
1.005000000000000000e+03 4.478863215767715511e-01
1.006000000000000000e+03 1.054163599585049349e+00
1.007000000000000000e+03 3.478895580912850782e-01
1.008000000000000000e+03 1.332137195020757447e+00
1.009000000000000000e+03 1.887789316770274728e-01
1.010000000000000000e+03 2.296082095435843851e+00
1.011000000000000000e+03 1.283325000000000049e+00
1.012000000000000000e+03 1.203307165975055826e+00
1.013000000000000000e+03 1.848325688796685240e+00
1.014000000000000000e+03 1.745190493775942819e+00
1.015000000000000000e+03 1.701661410788383400e+00
1.016000000000000000e+03 1.479376869294623642e+00
1.017000000000000000e+03 7.932523498964817454e-01
1.018000000000000000e+03 1.431764829875528333e+00
1.019000000000000000e+03 1.355775435684695385e+00
1.020000000000000000e+03 5.501275186722288657e-01
1.021000000000000000e+03 2.291420310559109663e-01
1.022000000000000000e+03 1.192058618257218594e+00
1.023000000000000000e+03 1.048845184647303252e+00
1.024000000000000000e+03 2.873990165975489619e-01
1.025000000000000000e+03 6.173787432712283252e-01
1.026000000000000000e+03 1.133860186721979302e+00
1.027000000000000000e+03 1.329756443983320713e+00
1.028000000000000000e+03 1.715840941908730599e+00
1.029000000000000000e+03 1.554350503105682346e+00
1.030000000000000000e+03 3.284457950207385402e+00
1.031000000000000000e+03 3.199695728215801616e+00
1.032000000000000000e+03 1.832473854771769606e+00
1.033000000000000000e+03 2.636681796680573786e+00
1.034000000000000000e+03 2.044521315352766599e+00
1.035000000000000000e+03 2.150050705394189965e+00
1.036000000000000000e+03 2.591088825726155953e+00
1.037000000000000000e+03 2.246108178423307233e+00
1.038000000000000000e+03 2.414069587136904005e+00
1.039000000000000000e+03 3.290003734439846284e+00
1.040000000000000000e+03 3.135572282157561119e+00
1.041000000000000000e+03 1.903761066390013745e+00
1.042000000000000000e+03 1.973721008281576594e+00
1.043000000000000000e+03 1.144095639004226506e+00
1.044000000000000000e+03 3.112770668049670952e+00
1.045000000000000000e+03 2.646495016597554706e+00
1.046000000000000000e+03 4.809841242235196601e-01
1.047000000000000000e+03 2.606082033194717651e-01
1.048000000000000000e+03 1.476452450207390354e+00
1.049000000000000000e+03 1.414151246887959568e+00
1.050000000000000000e+03 1.446472109730940980e+00
1.051000000000000000e+03 1.781257630705419537e+00
1.052000000000000000e+03 1.227178045643152915e+00
1.053000000000000000e+03 1.223801518672188005e+00
1.054000000000000000e+03 1.063172619047622280e+00
1.055000000000000000e+03 1.314560773858893139e+00
1.056000000000000000e+03 2.176610466805002364e+00
1.057000000000000000e+03 3.116008248962669036e+00
1.058000000000000000e+03 2.085702896480410296e+00
1.059000000000000000e+03 2.646470099585060076e+00
1.060000000000000000e+03 2.701680186721962418e+00
1.061000000000000000e+03 2.981400589211585128e+00
1.062000000000000000e+03 3.057885282157701390e+00
1.063000000000000000e+03 2.213543406638965205e+00
1.064000000000000000e+03 2.236720184647381870e+00
1.065000000000000000e+03 3.691742402489536001e+00
1.066000000000000000e+03 4.091925516597538781e+00
1.067000000000000000e+03 2.176909597510524375e+00
1.068000000000000000e+03 4.087077261410779094e+00
1.069000000000000000e+03 3.644067763485494549e+00
1.070000000000000000e+03 3.413083506224065644e+00
1.071000000000000000e+03 3.388130660455486165e+00
1.072000000000000000e+03 3.870717665975082156e+00
1.073000000000000000e+03 2.936331491701237972e+00
1.074000000000000000e+03 2.987392292531189320e+00
1.075000000000000000e+03 3.284546474120093151e+00
1.076000000000000000e+03 3.032162286307052312e+00
1.077000000000000000e+03 2.224204062240595192e+00
1.078000000000000000e+03 7.900207136928445451e-01
1.079000000000000000e+03 7.931093630705287056e-01
1.080000000000000000e+03 1.232611531120353598e+00
1.081000000000000000e+03 2.336182813278106618e+00
1.082000000000000000e+03 2.987170004149472646e+00
1.083000000000000000e+03 1.406237975155302911e+00
1.084000000000000000e+03 9.794954979253216454e-01
1.085000000000000000e+03 1.256260738589213499e+00
1.086000000000000000e+03 1.407022456431532564e+00
1.087000000000000000e+03 1.119141507246369294e+00
1.088000000000000000e+03 2.835103143153829386e+00
1.089000000000000000e+03 4.100170095435726303e+00
1.090000000000000000e+03 3.605137012448132783e+00
1.091000000000000000e+03 2.622673232365044349e+00
1.092000000000000000e+03 2.141258269709114259e+00
1.093000000000000000e+03 5.580787468879726987e+00
1.094000000000000000e+03 3.903674526970948744e+00
1.095000000000000000e+03 3.625241348547613374e+00
1.096000000000000000e+03 2.248764000000066154e+00
1.097000000000000000e+03 1.563855800829875520e+00
1.098000000000000000e+03 2.203282446058158595e+00
1.099000000000000000e+03 3.744650116182576927e+00
1.100000000000000000e+03 2.149459608695732271e+00
1.101000000000000000e+03 1.087075443983413381e+00
1.102000000000000000e+03 2.208674456431717559e+00
1.103000000000000000e+03 2.011020161825852082e+00
1.104000000000000000e+03 1.224970985507252141e+00
1.105000000000000000e+03 1.349123049792491980e+00
1.106000000000000000e+03 2.737712551390481530e-01
1.107000000000000000e+03 1.634868227738264790e-01
1.108000000000000000e+03 1.352528398340322457e+00
1.109000000000000000e+03 2.132018315352657289e+00
1.110000000000000000e+03 1.229336863070545682e+00
1.111000000000000000e+03 1.842549979253114811e+00
1.112000000000000000e+03 6.603684492752592838e-01
1.113000000000000000e+03 7.956374045642738979e-01
1.114000000000000000e+03 3.462794398340365842e-01
1.115000000000000000e+03 1.507776911556165944e-01
1.116000000000000000e+03 3.721747515527591421e-01
1.117000000000000000e+03 8.359928091286287222e-01
1.118000000000000000e+03 1.420024742738616785e+00
1.119000000000000000e+03 1.543221124481184425e+00
1.120000000000000000e+03 1.262073478260883619e-01
1.121000000000000000e+03 6.099414709543609092e-01
1.122000000000000000e+03 1.571636109958485683e+00
1.123000000000000000e+03 1.211164489626550544e+00
1.124000000000000000e+03 1.385922802904565154e+00
1.125000000000000000e+03 1.034981497925280935e+00
1.126000000000000000e+03 1.013231816348538761e-01
1.127000000000000000e+03 1.999094377593237049e+00
1.128000000000000000e+03 8.785553029045785056e-01
1.129000000000000000e+03 8.050105652174907034e-01
1.130000000000000000e+03 8.287070186722685916e-01
1.131000000000000000e+03 5.930617074688772083e-01
1.132000000000000000e+03 7.426169502074726481e-01
1.133000000000000000e+03 7.492282863070505172e-01
1.134000000000000000e+03 1.248170423236437010e+00
1.135000000000000000e+03 2.573243232365153510e+00
1.136000000000000000e+03 2.953220443983364696e+00
1.137000000000000000e+03 2.055260475103833695e+00
1.138000000000000000e+03 1.301704518672187838e+00
1.139000000000000000e+03 2.579321155601676629e+00
1.140000000000000000e+03 2.084739280083000246e+00
1.141000000000000000e+03 2.096291869565199750e+00
1.142000000000000000e+03 2.702363904564330177e+00
1.143000000000000000e+03 2.589154215767620837e+00
1.144000000000000000e+03 3.427952585062346458e+00
1.145000000000000000e+03 3.267530517598341788e+00
1.146000000000000000e+03 1.533764192946130533e+00
1.147000000000000000e+03 3.223162024896089495e+00
1.148000000000000000e+03 3.342873151452367075e+00
1.149000000000000000e+03 2.094256857142851480e+00
1.150000000000000000e+03 1.774495257261397008e+00
1.151000000000000000e+03 1.470328659751036993e+00
1.152000000000000000e+03 1.402846593360997929e+00
1.153000000000000000e+03 1.331822709543590610e+00
1.154000000000000000e+03 1.941523753111970674e+00
1.155000000000000000e+03 2.301583082987554540e+00
1.156000000000000000e+03 1.728219327800817773e+00
1.157000000000000000e+03 2.332141630705482971e+00
1.158000000000000000e+03 4.057233333333249092e+00
1.159000000000000000e+03 3.724784468879660970e+00
1.160000000000000000e+03 2.460395344398349948e+00
1.161000000000000000e+03 4.362996124481176352e+00
1.162000000000000000e+03 3.651113705394220865e+00
1.163000000000000000e+03 2.604641219917010364e+00
1.164000000000000000e+03 2.104172342323627820e+00
1.165000000000000000e+03 2.274771145228120073e+00
1.166000000000000000e+03 3.027604253112026189e+00
1.167000000000000000e+03 3.151636601659808523e+00
1.168000000000000000e+03 3.690554481327779079e+00
1.169000000000000000e+03 3.873092485477172886e+00
1.170000000000000000e+03 4.166572540372684763e+00
1.171000000000000000e+03 4.073607491701280559e+00
1.172000000000000000e+03 3.306176686722009705e+00
1.173000000000000000e+03 4.789880124481386225e+00
1.174000000000000000e+03 8.385085854771780589e+00
1.175000000000000000e+03 6.790879012448348462e+00
1.176000000000000000e+03 3.917702141078843958e+00
1.177000000000000000e+03 4.502479373444042032e+00
1.178000000000000000e+03 4.519621024896339989e+00
1.179000000000000000e+03 4.126417068464732552e+00
1.180000000000000000e+03 3.899516128630694745e+00
1.181000000000000000e+03 3.379396186721940420e+00
1.182000000000000000e+03 3.516362165975055021e+00
1.183000000000000000e+03 3.472127742738583933e+00
1.184000000000000000e+03 3.591852219917084810e+00
1.185000000000000000e+03 3.956828738589245997e+00
1.186000000000000000e+03 3.407795531120344723e+00
1.187000000000000000e+03 3.828690402489688172e+00
1.188000000000000000e+03 5.315978302904740715e+00
1.189000000000000000e+03 6.835898763485526608e+00
1.190000000000000000e+03 5.929649993775933936e+00
1.191000000000000000e+03 5.325397767634719060e+00
1.192000000000000000e+03 3.509930630705458299e+00
1.193000000000000000e+03 4.262295323651427381e+00
1.194000000000000000e+03 4.943146759336115359e+00
1.195000000000000000e+03 5.083201441908715701e+00
1.196000000000000000e+03 4.984494533195023003e+00
1.197000000000000000e+03 5.328314952282169337e+00
1.198000000000000000e+03 4.992235192946060884e+00
1.199000000000000000e+03 4.373219855072531637e+00
1.200000000000000000e+03 3.796846215767646360e+00
1.201000000000000000e+03 3.262443178423207968e+00
1.202000000000000000e+03 3.660482373443950888e+00
1.203000000000000000e+03 4.150816165975048655e+00
1.204000000000000000e+03 5.409091746887980889e+00
1.205000000000000000e+03 6.351940495850779911e+00
1.206000000000000000e+03 6.717728448132950447e+00
1.207000000000000000e+03 4.065782651452264140e+00
1.208000000000000000e+03 2.940647170124556453e+00
1.209000000000000000e+03 4.343836165975090147e+00
1.210000000000000000e+03 3.409018975103780047e+00
1.211000000000000000e+03 2.780205315352694218e+00
1.212000000000000000e+03 4.088276873444111281e+00
1.213000000000000000e+03 3.923251317427414175e+00
1.214000000000000000e+03 3.289261759336099544e+00
1.215000000000000000e+03 3.589844199170139305e+00
1.216000000000000000e+03 3.560809174273753097e+00
1.217000000000000000e+03 6.210137016597467863e+00
1.218000000000000000e+03 4.979498680497795426e+00
1.219000000000000000e+03 2.312757858921028919e+00
1.220000000000000000e+03 2.912596473028935762e+00
1.221000000000000000e+03 2.735075085062211198e+00
1.222000000000000000e+03 1.298484112033147397e+00
1.223000000000000000e+03 1.786097910788343235e+00
1.224000000000000000e+03 2.092721705394197329e+00
1.225000000000000000e+03 1.932513203319538242e+00
1.226000000000000000e+03 3.295547518672360177e+00
1.227000000000000000e+03 3.573646742738669779e+00
1.228000000000000000e+03 3.016307473029111730e+00
1.229000000000000000e+03 3.874430721991249271e+00
1.230000000000000000e+03 1.074387765020245744e-01
1.231000000000000000e+03 1.460940130705361995e+00
1.232000000000000000e+03 2.526904975103698714e+00
1.233000000000000000e+03 1.501440186721986203e+00
1.234000000000000000e+03 2.481840896265515628e+00
1.235000000000000000e+03 2.944186053941897363e+00
1.236000000000000000e+03 8.754149356844418417e-01
1.237000000000000000e+03 1.177651941908640421e+00
1.238000000000000000e+03 1.194306118257262739e+00
1.239000000000000000e+03 1.675360556016646019e+00
1.240000000000000000e+03 1.940420398340247488e+00
1.241000000000000000e+03 9.633760705394445178e-01
1.242000000000000000e+03 3.442671825726004164e-01
1.243000000000000000e+03 8.969516058092044108e-01
1.244000000000000000e+03 8.205568464731581857e-01
1.245000000000000000e+03 4.383409647302965451e-01
1.246000000000000000e+03 3.651440788381299929e-01
1.247000000000000000e+03 8.641462427383953537e-01
1.248000000000000000e+03 2.173705101659739292e+00
1.249000000000000000e+03 1.900279224066347084e+00
1.250000000000000000e+03 1.209006120331970413e+00
1.251000000000000000e+03 5.746071037345030774e-01
1.252000000000000000e+03 3.126381327800829557e-01
1.253000000000000000e+03 8.389721431535585028e-01
1.254000000000000000e+03 3.233592199143693335e-01
1.255000000000000000e+03 6.164871369294412373e-01
1.256000000000000000e+03 1.728298174273927401e+00
1.257000000000000000e+03 3.114205763485488276e+00
1.258000000000000000e+03 2.470388900414962396e+00
1.259000000000000000e+03 2.342119730290464386e+00
1.260000000000000000e+03 2.953539609958560241e+00
1.261000000000000000e+03 3.384615367219919513e+00
1.262000000000000000e+03 2.227500410788385565e+00
1.263000000000000000e+03 3.837658257261542083e+00
1.264000000000000000e+03 3.784564800829929965e+00
1.265000000000000000e+03 4.575419531120279437e+00
1.266000000000000000e+03 4.170973813277940145e+00
1.267000000000000000e+03 2.969470273858837217e+00
1.268000000000000000e+03 3.138370925311179782e+00
1.269000000000000000e+03 2.758088975155284839e+00
1.270000000000000000e+03 2.286196782157670082e+00
1.271000000000000000e+03 1.701943377593310602e+00
1.272000000000000000e+03 1.189781628630644406e+00
1.273000000000000000e+03 1.735136470954331767e+00
1.274000000000000000e+03 9.603429253112051311e-01
1.275000000000000000e+03 9.528531078838134993e-01
1.276000000000000000e+03 1.892169294605815066e+00
1.277000000000000000e+03 2.877928008298723750e+00
1.278000000000000000e+03 2.368577647302883005e+00
1.279000000000000000e+03 2.946014375518672068e+00
1.280000000000000000e+03 1.627728883817362249e+00
1.281000000000000000e+03 2.081013105593107482e-01
1.282000000000000000e+03 2.965916900414972357e+00
1.283000000000000000e+03 1.900487842323649312e+00
1.284000000000000000e+03 2.129913439833940547e+00
1.285000000000000000e+03 4.390791535270911483e-01
1.286000000000000000e+03 0.000000000000000000e+00
1.287000000000000000e+03 0.000000000000000000e+00
1.288000000000000000e+03 0.000000000000000000e+00
1.289000000000000000e+03 0.000000000000000000e+00
1.290000000000000000e+03 0.000000000000000000e+00
1.291000000000000000e+03 0.000000000000000000e+00
1.292000000000000000e+03 0.000000000000000000e+00
1.293000000000000000e+03 0.000000000000000000e+00
1.294000000000000000e+03 0.000000000000000000e+00
1.295000000000000000e+03 0.000000000000000000e+00
1.296000000000000000e+03 0.000000000000000000e+00
1.297000000000000000e+03 0.000000000000000000e+00
1.298000000000000000e+03 0.000000000000000000e+00
1.299000000000000000e+03 0.000000000000000000e+00
1.300000000000000000e+03 0.000000000000000000e+00
1.301000000000000000e+03 0.000000000000000000e+00
1.302000000000000000e+03 0.000000000000000000e+00
1.303000000000000000e+03 0.000000000000000000e+00
1.304000000000000000e+03 0.000000000000000000e+00
1.305000000000000000e+03 0.000000000000000000e+00
1.306000000000000000e+03 0.000000000000000000e+00
1.307000000000000000e+03 0.000000000000000000e+00
1.308000000000000000e+03 0.000000000000000000e+00
1.309000000000000000e+03 0.000000000000000000e+00
1.310000000000000000e+03 0.000000000000000000e+00
1.311000000000000000e+03 0.000000000000000000e+00
1.312000000000000000e+03 0.000000000000000000e+00
1.313000000000000000e+03 0.000000000000000000e+00
1.314000000000000000e+03 0.000000000000000000e+00
1.315000000000000000e+03 0.000000000000000000e+00
1.316000000000000000e+03 0.000000000000000000e+00
1.317000000000000000e+03 0.000000000000000000e+00
1.318000000000000000e+03 0.000000000000000000e+00
1.319000000000000000e+03 0.000000000000000000e+00
1.320000000000000000e+03 0.000000000000000000e+00
1.321000000000000000e+03 0.000000000000000000e+00
1.322000000000000000e+03 0.000000000000000000e+00
1.323000000000000000e+03 0.000000000000000000e+00
1.324000000000000000e+03 0.000000000000000000e+00
1.325000000000000000e+03 0.000000000000000000e+00
1.326000000000000000e+03 0.000000000000000000e+00
1.327000000000000000e+03 0.000000000000000000e+00
1.328000000000000000e+03 0.000000000000000000e+00
1.329000000000000000e+03 0.000000000000000000e+00
1.330000000000000000e+03 0.000000000000000000e+00
1.331000000000000000e+03 0.000000000000000000e+00
1.332000000000000000e+03 0.000000000000000000e+00
1.333000000000000000e+03 0.000000000000000000e+00
1.334000000000000000e+03 0.000000000000000000e+00
1.335000000000000000e+03 0.000000000000000000e+00
1.336000000000000000e+03 0.000000000000000000e+00
1.337000000000000000e+03 0.000000000000000000e+00
1.338000000000000000e+03 0.000000000000000000e+00
1.339000000000000000e+03 0.000000000000000000e+00
1.340000000000000000e+03 0.000000000000000000e+00
1.341000000000000000e+03 0.000000000000000000e+00
1.342000000000000000e+03 0.000000000000000000e+00
1.343000000000000000e+03 0.000000000000000000e+00
1.344000000000000000e+03 0.000000000000000000e+00
1.345000000000000000e+03 0.000000000000000000e+00
1.346000000000000000e+03 0.000000000000000000e+00
1.347000000000000000e+03 0.000000000000000000e+00
1.348000000000000000e+03 0.000000000000000000e+00
1.349000000000000000e+03 0.000000000000000000e+00
1.350000000000000000e+03 0.000000000000000000e+00
1.351000000000000000e+03 0.000000000000000000e+00
1.352000000000000000e+03 0.000000000000000000e+00
1.353000000000000000e+03 0.000000000000000000e+00
1.354000000000000000e+03 0.000000000000000000e+00
1.355000000000000000e+03 0.000000000000000000e+00
1.356000000000000000e+03 0.000000000000000000e+00
1.357000000000000000e+03 0.000000000000000000e+00
1.358000000000000000e+03 0.000000000000000000e+00
1.359000000000000000e+03 0.000000000000000000e+00
1.360000000000000000e+03 0.000000000000000000e+00
1.361000000000000000e+03 0.000000000000000000e+00
1.362000000000000000e+03 0.000000000000000000e+00
1.363000000000000000e+03 0.000000000000000000e+00
1.364000000000000000e+03 0.000000000000000000e+00
1.365000000000000000e+03 0.000000000000000000e+00
1.366000000000000000e+03 0.000000000000000000e+00
1.367000000000000000e+03 0.000000000000000000e+00
1.368000000000000000e+03 0.000000000000000000e+00
1.369000000000000000e+03 0.000000000000000000e+00
1.370000000000000000e+03 0.000000000000000000e+00
1.371000000000000000e+03 0.000000000000000000e+00
1.372000000000000000e+03 0.000000000000000000e+00
1.373000000000000000e+03 0.000000000000000000e+00
1.374000000000000000e+03 0.000000000000000000e+00
1.375000000000000000e+03 0.000000000000000000e+00
1.376000000000000000e+03 0.000000000000000000e+00
1.377000000000000000e+03 0.000000000000000000e+00
1.378000000000000000e+03 0.000000000000000000e+00
1.379000000000000000e+03 0.000000000000000000e+00
1.380000000000000000e+03 0.000000000000000000e+00
1.381000000000000000e+03 0.000000000000000000e+00
1.382000000000000000e+03 0.000000000000000000e+00
1.383000000000000000e+03 0.000000000000000000e+00
1.384000000000000000e+03 0.000000000000000000e+00
1.385000000000000000e+03 0.000000000000000000e+00
1.386000000000000000e+03 0.000000000000000000e+00
1.387000000000000000e+03 0.000000000000000000e+00
1.388000000000000000e+03 0.000000000000000000e+00
1.389000000000000000e+03 0.000000000000000000e+00
1.390000000000000000e+03 0.000000000000000000e+00
1.391000000000000000e+03 0.000000000000000000e+00
1.392000000000000000e+03 0.000000000000000000e+00
1.393000000000000000e+03 0.000000000000000000e+00
1.394000000000000000e+03 0.000000000000000000e+00
1.395000000000000000e+03 0.000000000000000000e+00
1.396000000000000000e+03 0.000000000000000000e+00
1.397000000000000000e+03 0.000000000000000000e+00
1.398000000000000000e+03 0.000000000000000000e+00
1.399000000000000000e+03 0.000000000000000000e+00
1.400000000000000000e+03 0.000000000000000000e+00
1.401000000000000000e+03 0.000000000000000000e+00
1.402000000000000000e+03 0.000000000000000000e+00
1.403000000000000000e+03 0.000000000000000000e+00
1.404000000000000000e+03 0.000000000000000000e+00
1.405000000000000000e+03 0.000000000000000000e+00
1.406000000000000000e+03 0.000000000000000000e+00
1.407000000000000000e+03 0.000000000000000000e+00
1.408000000000000000e+03 0.000000000000000000e+00
1.409000000000000000e+03 0.000000000000000000e+00
1.410000000000000000e+03 0.000000000000000000e+00
1.411000000000000000e+03 0.000000000000000000e+00
1.412000000000000000e+03 0.000000000000000000e+00
1.413000000000000000e+03 0.000000000000000000e+00
1.414000000000000000e+03 0.000000000000000000e+00
1.415000000000000000e+03 0.000000000000000000e+00
1.416000000000000000e+03 0.000000000000000000e+00
1.417000000000000000e+03 0.000000000000000000e+00
1.418000000000000000e+03 0.000000000000000000e+00
1.419000000000000000e+03 0.000000000000000000e+00
1.420000000000000000e+03 0.000000000000000000e+00
1.421000000000000000e+03 0.000000000000000000e+00
1.422000000000000000e+03 0.000000000000000000e+00
1.423000000000000000e+03 0.000000000000000000e+00
1.424000000000000000e+03 0.000000000000000000e+00
1.425000000000000000e+03 0.000000000000000000e+00
1.426000000000000000e+03 0.000000000000000000e+00
1.427000000000000000e+03 0.000000000000000000e+00
1.428000000000000000e+03 0.000000000000000000e+00
1.429000000000000000e+03 0.000000000000000000e+00
1.430000000000000000e+03 0.000000000000000000e+00
1.431000000000000000e+03 0.000000000000000000e+00
1.432000000000000000e+03 0.000000000000000000e+00
1.433000000000000000e+03 0.000000000000000000e+00
1.434000000000000000e+03 0.000000000000000000e+00
1.435000000000000000e+03 0.000000000000000000e+00
1.436000000000000000e+03 0.000000000000000000e+00
1.437000000000000000e+03 0.000000000000000000e+00
1.438000000000000000e+03 0.000000000000000000e+00
1.439000000000000000e+03 0.000000000000000000e+00
1.440000000000000000e+03 0.000000000000000000e+00
1.441000000000000000e+03 0.000000000000000000e+00
1.442000000000000000e+03 0.000000000000000000e+00
1.443000000000000000e+03 0.000000000000000000e+00
1.444000000000000000e+03 0.000000000000000000e+00
1.445000000000000000e+03 0.000000000000000000e+00
1.446000000000000000e+03 0.000000000000000000e+00
1.447000000000000000e+03 0.000000000000000000e+00
1.448000000000000000e+03 0.000000000000000000e+00
1.449000000000000000e+03 0.000000000000000000e+00
1.450000000000000000e+03 0.000000000000000000e+00
1.451000000000000000e+03 0.000000000000000000e+00
1.452000000000000000e+03 0.000000000000000000e+00
1.453000000000000000e+03 0.000000000000000000e+00
1.454000000000000000e+03 0.000000000000000000e+00
1.455000000000000000e+03 0.000000000000000000e+00
1.456000000000000000e+03 0.000000000000000000e+00
1.457000000000000000e+03 0.000000000000000000e+00
1.458000000000000000e+03 0.000000000000000000e+00
1.459000000000000000e+03 0.000000000000000000e+00
1.460000000000000000e+03 0.000000000000000000e+00
1.461000000000000000e+03 0.000000000000000000e+00
1.462000000000000000e+03 0.000000000000000000e+00
1.463000000000000000e+03 0.000000000000000000e+00
1.464000000000000000e+03 0.000000000000000000e+00
1.465000000000000000e+03 0.000000000000000000e+00
1.466000000000000000e+03 0.000000000000000000e+00
1.467000000000000000e+03 0.000000000000000000e+00
1.468000000000000000e+03 0.000000000000000000e+00
1.469000000000000000e+03 0.000000000000000000e+00
1.470000000000000000e+03 0.000000000000000000e+00
1.471000000000000000e+03 0.000000000000000000e+00
1.472000000000000000e+03 0.000000000000000000e+00
1.473000000000000000e+03 0.000000000000000000e+00
1.474000000000000000e+03 0.000000000000000000e+00
1.475000000000000000e+03 0.000000000000000000e+00
1.476000000000000000e+03 0.000000000000000000e+00
1.477000000000000000e+03 0.000000000000000000e+00
1.478000000000000000e+03 0.000000000000000000e+00
1.479000000000000000e+03 0.000000000000000000e+00
1.480000000000000000e+03 0.000000000000000000e+00
1.481000000000000000e+03 0.000000000000000000e+00
1.482000000000000000e+03 0.000000000000000000e+00
1.483000000000000000e+03 0.000000000000000000e+00
1.484000000000000000e+03 0.000000000000000000e+00
1.485000000000000000e+03 0.000000000000000000e+00
1.486000000000000000e+03 0.000000000000000000e+00
1.487000000000000000e+03 0.000000000000000000e+00
1.488000000000000000e+03 0.000000000000000000e+00
1.489000000000000000e+03 0.000000000000000000e+00
1.490000000000000000e+03 0.000000000000000000e+00
1.491000000000000000e+03 0.000000000000000000e+00
1.492000000000000000e+03 0.000000000000000000e+00
1.493000000000000000e+03 0.000000000000000000e+00
1.494000000000000000e+03 0.000000000000000000e+00
1.495000000000000000e+03 0.000000000000000000e+00
1.496000000000000000e+03 0.000000000000000000e+00
1.497000000000000000e+03 0.000000000000000000e+00
1.498000000000000000e+03 0.000000000000000000e+00
1.499000000000000000e+03 0.000000000000000000e+00
1.500000000000000000e+03 0.000000000000000000e+00
