1.010000000000000000e+02 0.000000000000000000e+00
1.020000000000000000e+02 0.000000000000000000e+00
1.030000000000000000e+02 0.000000000000000000e+00
1.040000000000000000e+02 0.000000000000000000e+00
1.050000000000000000e+02 0.000000000000000000e+00
1.060000000000000000e+02 0.000000000000000000e+00
1.070000000000000000e+02 0.000000000000000000e+00
1.080000000000000000e+02 0.000000000000000000e+00
1.090000000000000000e+02 0.000000000000000000e+00
1.100000000000000000e+02 0.000000000000000000e+00
1.110000000000000000e+02 0.000000000000000000e+00
1.120000000000000000e+02 0.000000000000000000e+00
1.130000000000000000e+02 0.000000000000000000e+00
1.140000000000000000e+02 0.000000000000000000e+00
1.150000000000000000e+02 0.000000000000000000e+00
1.160000000000000000e+02 0.000000000000000000e+00
1.170000000000000000e+02 0.000000000000000000e+00
1.180000000000000000e+02 0.000000000000000000e+00
1.190000000000000000e+02 0.000000000000000000e+00
1.200000000000000000e+02 0.000000000000000000e+00
1.210000000000000000e+02 0.000000000000000000e+00
1.220000000000000000e+02 0.000000000000000000e+00
1.230000000000000000e+02 0.000000000000000000e+00
1.240000000000000000e+02 0.000000000000000000e+00
1.250000000000000000e+02 0.000000000000000000e+00
1.260000000000000000e+02 0.000000000000000000e+00
1.270000000000000000e+02 0.000000000000000000e+00
1.280000000000000000e+02 0.000000000000000000e+00
1.290000000000000000e+02 0.000000000000000000e+00
1.300000000000000000e+02 0.000000000000000000e+00
1.310000000000000000e+02 0.000000000000000000e+00
1.320000000000000000e+02 0.000000000000000000e+00
1.330000000000000000e+02 0.000000000000000000e+00
1.340000000000000000e+02 0.000000000000000000e+00
1.350000000000000000e+02 0.000000000000000000e+00
1.360000000000000000e+02 0.000000000000000000e+00
1.370000000000000000e+02 0.000000000000000000e+00
1.380000000000000000e+02 0.000000000000000000e+00
1.390000000000000000e+02 0.000000000000000000e+00
1.400000000000000000e+02 0.000000000000000000e+00
1.410000000000000000e+02 9.878924725990484035e+01
1.420000000000000000e+02 3.455115389960574817e+02
1.430000000000000000e+02 4.846838468574982812e+02
1.440000000000000000e+02 4.200339973864325884e+02
1.450000000000000000e+02 2.299663099564404263e+02
1.460000000000000000e+02 9.669116719975157537e+01
1.470000000000000000e+02 1.620258058701530857e+01
1.480000000000000000e+02 3.218064883426684020e+01
1.490000000000000000e+02 2.033728267579343196e+01
1.500000000000000000e+02 1.317993622816840968e+02
1.510000000000000000e+02 3.258905801908297235e+02
1.520000000000000000e+02 5.063345385189808781e+02
1.530000000000000000e+02 7.091407189794665555e+02
1.540000000000000000e+02 9.655851138145609411e+02
1.550000000000000000e+02 1.242281365899189041e+03
1.560000000000000000e+02 1.552035335960179964e+03
1.570000000000000000e+02 1.793058987969302052e+03
1.580000000000000000e+02 1.812252831985064859e+03
1.590000000000000000e+02 1.449423121966399776e+03
1.600000000000000000e+02 1.006252375482270395e+03
1.610000000000000000e+02 6.585837378552139398e+02
1.620000000000000000e+02 5.155230628500311241e+02
1.630000000000000000e+02 5.819284250777844818e+02
1.640000000000000000e+02 5.604197083385193991e+02
1.650000000000000000e+02 5.598667087533708582e+02
1.660000000000000000e+02 5.756826271105579735e+02
1.670000000000000000e+02 5.723618904169260304e+02
1.680000000000000000e+02 6.056209629744864742e+02
1.690000000000000000e+02 6.080433786766232060e+02
1.700000000000000000e+02 6.573157486312742321e+02
1.710000000000000000e+02 7.449684391827421450e+02
1.720000000000000000e+02 7.209627009334166132e+02
1.730000000000000000e+02 6.733864003732891206e+02
1.740000000000000000e+02 6.629169705247875299e+02
1.750000000000000000e+02 6.933689499481436087e+02
1.760000000000000000e+02 7.235885437370385489e+02
1.770000000000000000e+02 6.828998652146863151e+02
1.780000000000000000e+02 7.257950278365494796e+02
1.790000000000000000e+02 8.120660361260889886e+02
1.800000000000000000e+02 8.344204141879278041e+02
1.810000000000000000e+02 7.868455699439948603e+02
1.820000000000000000e+02 8.316413119477297187e+02
1.830000000000000000e+02 9.197087165525828141e+02
1.840000000000000000e+02 9.904357703381041347e+02
1.850000000000000000e+02 1.051382551130470119e+03
1.860000000000000000e+02 1.160355401369009996e+03
1.870000000000000000e+02 1.307814403235844566e+03
1.880000000000000000e+02 1.454854046670815251e+03
1.890000000000000000e+02 1.574232574984442181e+03
1.900000000000000000e+02 1.752196986309892054e+03
1.910000000000000000e+02 1.902974245177350213e+03
1.920000000000000000e+02 2.080818479775980904e+03
1.930000000000000000e+02 2.366075592285357288e+03
1.940000000000000000e+02 2.666712972619785432e+03
1.950000000000000000e+02 2.650781677660233981e+03
1.960000000000000000e+02 2.394935141879277126e+03
1.970000000000000000e+02 2.039416111802531532e+03
1.980000000000000000e+02 1.701415130885710823e+03
1.990000000000000000e+02 1.408572641568136760e+03
2.000000000000000000e+02 1.285358934038581310e+03
2.010000000000000000e+02 1.297490667703795907e+03
2.020000000000000000e+02 1.300894893797967143e+03
2.030000000000000000e+02 1.321723685127567023e+03
2.040000000000000000e+02 1.364011951462352727e+03
2.050000000000000000e+02 1.369801393279402646e+03
2.060000000000000000e+02 1.298858239784277430e+03
2.070000000000000000e+02 1.193237971375234565e+03
2.080000000000000000e+02 9.358880616884437131e+02
2.090000000000000000e+02 6.867692989421274206e+02
2.100000000000000000e+02 5.398792962671092255e+02
2.110000000000000000e+02 4.794278118025311528e+02
2.120000000000000000e+02 4.282900469819533669e+02
2.130000000000000000e+02 3.868507571547073667e+02
2.140000000000000000e+02 3.637426467952706730e+02
2.150000000000000000e+02 3.571994000000000824e+02
2.160000000000000000e+02 3.290174215678140968e+02
2.170000000000000000e+02 3.201332479568554277e+02
2.180000000000000000e+02 3.315376228998133570e+02
2.190000000000000000e+02 3.471682019079219685e+02
2.200000000000000000e+02 3.516108012238123024e+02
2.210000000000000000e+02 3.990166809583080294e+02
2.220000000000000000e+02 3.881307840489524210e+02
2.230000000000000000e+02 3.879601023024262645e+02
2.240000000000000000e+02 5.216610856668737597e+02
2.250000000000000000e+02 5.017263959759386580e+02
2.260000000000000000e+02 5.924633087948566299e+02
2.270000000000000000e+02 7.433947469929487397e+02
2.280000000000000000e+02 8.633992458618531600e+02
2.290000000000000000e+02 1.004503015390997916e+03
2.300000000000000000e+02 1.202793838241394951e+03
2.310000000000000000e+02 1.389873266749636969e+03
2.320000000000000000e+02 1.563807565650278775e+03
2.330000000000000000e+02 1.786069288262134023e+03
2.340000000000000000e+02 1.959667098319851902e+03
2.350000000000000000e+02 2.140573609002282410e+03
2.360000000000000000e+02 2.334580149139181685e+03
2.370000000000000000e+02 2.516743807093962005e+03
2.380000000000000000e+02 2.721264210537236522e+03
2.390000000000000000e+02 3.171716613150799731e+03
2.400000000000000000e+02 3.694605979879691404e+03
2.410000000000000000e+02 4.263097841941499610e+03
2.420000000000000000e+02 4.995597792781588396e+03
2.430000000000000000e+02 5.662697202862479571e+03
2.440000000000000000e+02 5.894844395353661639e+03
2.450000000000000000e+02 5.553654444306165715e+03
2.460000000000000000e+02 4.728320074051018310e+03
2.470000000000000000e+02 3.703059653183977844e+03
2.480000000000000000e+02 2.646157481227960943e+03
2.490000000000000000e+02 1.836694423356153266e+03
2.500000000000000000e+02 1.310886909166324358e+03
2.510000000000000000e+02 9.286213443061577664e+02
2.520000000000000000e+02 6.239475400331874653e+02
2.530000000000000000e+02 4.869275335130652707e+02
2.540000000000000000e+02 3.980314948765835084e+02
2.550000000000000000e+02 2.444033779091461440e+02
2.560000000000000000e+02 1.820403995230193459e+02
2.570000000000000000e+02 1.683113459655673125e+02
2.580000000000000000e+02 1.643389801078614880e+02
2.590000000000000000e+02 1.513167257154706533e+02
2.600000000000000000e+02 1.234974236465461814e+02
2.610000000000000000e+02 9.904122068865379447e+01
2.620000000000000000e+02 6.368086226301517172e+01
2.630000000000000000e+02 2.681216488280388788e+01
2.640000000000000000e+02 6.240636562539029875e+00
2.650000000000000000e+02 2.600911855009318785e+01
2.660000000000000000e+02 2.409298565235394207e+01
2.670000000000000000e+02 7.645984481850042869e+00
2.680000000000000000e+02 7.284344368388532942e+00
2.690000000000000000e+02 9.627455642812462244e+00
2.700000000000000000e+02 6.358456651317154318e+00
2.710000000000000000e+02 4.800399566479905644e+01
2.720000000000000000e+02 6.586533456129475894e+01
2.730000000000000000e+02 3.503256428749244833e+01
2.740000000000000000e+02 6.745580520224014265e+01
2.750000000000000000e+02 9.699438149346590876e+01
2.760000000000000000e+02 1.373580052675233958e+02
2.770000000000000000e+02 1.434328123418372058e+02
2.780000000000000000e+02 7.795006735532045639e+01
2.790000000000000000e+02 1.033715976150975422e+02
2.800000000000000000e+02 1.052707954864132063e+02
2.810000000000000000e+02 6.472896024056426256e+01
2.820000000000000000e+02 1.984757451980967957e+01
2.830000000000000000e+02 1.585558234598612160e+01
2.840000000000000000e+02 7.810889473247591752e+00
2.850000000000000000e+02 2.829933804189968072e+01
2.860000000000000000e+02 1.037633232607462119e+01
2.870000000000000000e+02 3.539594941103270997e+01
2.880000000000000000e+02 3.950402875419955251e+01
2.890000000000000000e+02 3.490042416303720074e+01
2.900000000000000000e+02 1.757265378967025526e+01
2.910000000000000000e+02 2.627210459863099246e+01
2.920000000000000000e+02 3.023310253266936343e+01
2.930000000000000000e+02 6.820704078406981807e+01
2.940000000000000000e+02 2.907224629329995835e+01
2.950000000000000000e+02 2.070509551960164529e+01
2.960000000000000000e+02 6.261449615225395604e+01
2.970000000000000000e+02 3.890192731798431396e+02
2.980000000000000000e+02 4.506600270275868070e+02
2.990000000000000000e+02 3.225847654843434498e+02
3.000000000000000000e+02 2.494784719560259418e+02
3.010000000000000000e+02 3.172679954573751502e+02
3.020000000000000000e+02 3.109449251400129128e+02
3.030000000000000000e+02 2.608228494503230763e+02
3.040000000000000000e+02 1.879790684363356092e+02
3.050000000000000000e+02 8.706412068035808716e+01
3.060000000000000000e+02 3.864785741132499908e+01
3.070000000000000000e+02 2.226078893820032434e+01
3.080000000000000000e+02 3.765414407384359663e+01
3.090000000000000000e+02 6.604981263430831007e+01
3.100000000000000000e+02 6.983830345499806924e+01
3.110000000000000000e+02 1.256253850653394721e+02
3.120000000000000000e+02 6.600772856461284732e+01
3.130000000000000000e+02 2.491795285151389905e+01
3.140000000000000000e+02 1.080583601368951996e+01
3.150000000000000000e+02 3.802216841319282992e+01
3.160000000000000000e+02 4.481503397635167119e+01
3.170000000000000000e+02 1.573586973656952637e+02
3.180000000000000000e+02 2.430370267164493328e+02
3.190000000000000000e+02 3.069205924082109505e+02
3.200000000000000000e+02 4.911422009956407919e+02
3.210000000000000000e+02 6.042434690105782238e+02
3.220000000000000000e+02 7.133159813109303968e+02
3.230000000000000000e+02 7.930978544700266184e+02
3.240000000000000000e+02 8.377154214063458539e+02
3.250000000000000000e+02 9.456221579340386825e+02
3.260000000000000000e+02 1.147974076954987595e+03
3.270000000000000000e+02 1.254791766645924099e+03
3.280000000000000000e+02 1.377534282721428781e+03
3.290000000000000000e+02 1.690933607342876257e+03
3.300000000000000000e+02 2.051515111986727334e+03
3.310000000000000000e+02 2.502537977390592005e+03
3.320000000000000000e+02 3.035799615225064372e+03
3.330000000000000000e+02 3.645435757362089134e+03
3.340000000000000000e+02 4.340286399502198947e+03
3.350000000000000000e+02 5.191833980087138116e+03
3.360000000000000000e+02 6.068690499999999702e+03
3.370000000000000000e+02 7.032995803360276113e+03
3.380000000000000000e+02 8.077449420037309210e+03
3.390000000000000000e+02 9.061115148071341537e+03
3.400000000000000000e+02 1.003650983613356948e+04
3.410000000000000000e+02 1.057727800663761991e+04
3.420000000000000000e+02 1.058708071547075815e+04
3.430000000000000000e+02 1.013091768388301534e+04
3.440000000000000000e+02 9.269502524372544940e+03
3.450000000000000000e+02 8.403655419000198890e+03
3.460000000000000000e+02 7.603649415888816293e+03
3.470000000000000000e+02 6.799438848786558992e+03
3.480000000000000000e+02 5.880526413192264954e+03
3.490000000000000000e+02 4.850705044181691846e+03
3.500000000000000000e+02 3.963176818954797909e+03
3.510000000000000000e+02 3.263113181082759638e+03
3.520000000000000000e+02 2.673136717485985628e+03
3.530000000000000000e+02 2.138513219041699813e+03
3.540000000000000000e+02 1.817900072184199644e+03
3.550000000000000000e+02 1.544702540759185695e+03
3.560000000000000000e+02 1.364442416511098145e+03
3.570000000000000000e+02 1.250649396390792845e+03
3.580000000000000000e+02 1.068573440066363446e+03
3.590000000000000000e+02 1.039739624144368463e+03
3.600000000000000000e+02 1.048714626011200835e+03
3.610000000000000000e+02 1.061996605972625503e+03
3.620000000000000000e+02 1.112728986932172802e+03
3.630000000000000000e+02 1.250453240406555324e+03
3.640000000000000000e+02 1.408263339070927486e+03
3.650000000000000000e+02 1.609275571043356422e+03
3.660000000000000000e+02 1.822479240199131482e+03
3.670000000000000000e+02 2.042378635420983073e+03
3.680000000000000000e+02 2.391830033188141897e+03
3.690000000000000000e+02 2.585161916199961979e+03
3.700000000000000000e+02 2.657059411532877220e+03
3.710000000000000000e+02 2.533166962663355662e+03
3.720000000000000000e+02 2.133271453432908856e+03
3.730000000000000000e+02 1.679648164696123558e+03
3.740000000000000000e+02 1.323698139805023175e+03
3.750000000000000000e+02 1.031905834723090948e+03
3.760000000000000000e+02 7.546678609831976701e+02
3.770000000000000000e+02 4.926802404272977469e+02
3.780000000000000000e+02 3.301892545529981362e+02
3.790000000000000000e+02 3.337230161169889584e+02
3.800000000000000000e+02 2.929000365276906450e+02
3.810000000000000000e+02 2.446156542418585502e+02
3.820000000000000000e+02 3.692801013067851272e+02
3.830000000000000000e+02 3.872069627255755790e+02
3.840000000000000000e+02 4.902888710493581357e+02
3.850000000000000000e+02 6.089423639079012673e+02
3.860000000000000000e+02 7.019560063887188335e+02
3.870000000000000000e+02 7.948835563666530106e+02
3.880000000000000000e+02 7.717707112424823208e+02
3.890000000000000000e+02 6.455825530802777621e+02
3.900000000000000000e+02 4.899191812525906471e+02
3.910000000000000000e+02 3.947049453018048553e+02
3.920000000000000000e+02 4.087280360713540404e+02
3.930000000000000000e+02 4.169037540647033779e+02
3.940000000000000000e+02 4.874072052893588420e+02
3.950000000000000000e+02 5.940129903754400402e+02
3.960000000000000000e+02 6.868426805060149718e+02
3.970000000000000000e+02 7.377218493673511830e+02
3.980000000000000000e+02 7.205205862476664151e+02
3.990000000000000000e+02 8.038068471064124196e+02
4.000000000000000000e+02 9.415693997925760641e+02
4.010000000000000000e+02 1.078893123418379673e+03
4.020000000000000000e+02 1.247588467537854513e+03
4.030000000000000000e+02 1.406090269446176080e+03
4.040000000000000000e+02 1.464506210744658574e+03
4.050000000000000000e+02 1.455885672059738681e+03
4.060000000000000000e+02 1.388326345986313299e+03
4.070000000000000000e+02 1.177640596141876586e+03
4.080000000000000000e+02 1.088893342252645198e+03
4.090000000000000000e+02 9.811752000829724238e+02
4.100000000000000000e+02 9.159039412570009517e+02
4.110000000000000000e+02 9.795764331881351836e+02
4.120000000000000000e+02 1.086580006222774500e+03
4.130000000000000000e+02 1.233660879303192814e+03
4.140000000000000000e+02 1.294556432897739114e+03
4.150000000000000000e+02 1.383216388923460272e+03
4.160000000000000000e+02 1.514432837204479483e+03
4.170000000000000000e+02 1.434320457996264849e+03
4.180000000000000000e+02 1.421618235843185857e+03
4.190000000000000000e+02 1.229813739941937456e+03
4.200000000000000000e+02 9.952531948558352042e+02
4.210000000000000000e+02 8.787342132517634354e+02
4.220000000000000000e+02 7.674689719352847987e+02
4.230000000000000000e+02 7.324406938394527060e+02
4.240000000000000000e+02 7.471956301389752753e+02
4.250000000000000000e+02 7.947291900020737785e+02
4.260000000000000000e+02 8.878574368388276525e+02
4.270000000000000000e+02 1.075364868699440876e+03
4.280000000000000000e+02 1.228300459863098922e+03
4.290000000000000000e+02 1.426604913918272814e+03
4.300000000000000000e+02 1.578056569383945998e+03
4.310000000000000000e+02 1.608964953329185164e+03
4.320000000000000000e+02 1.609127910184608709e+03
4.330000000000000000e+02 1.368680296411525887e+03
4.340000000000000000e+02 1.125789704625592776e+03
4.350000000000000000e+02 8.537621459240782542e+02
4.360000000000000000e+02 5.037627731176188490e+02
4.370000000000000000e+02 2.393763451151153276e+02
4.380000000000000000e+02 1.069368457673150772e+02
4.390000000000000000e+02 5.035040578095873798e+01
4.400000000000000000e+02 4.108401510889830632e+01
4.410000000000000000e+02 2.842352138034170039e+01
4.420000000000000000e+02 5.541518503837312437e+01
4.430000000000000000e+02 1.249059360920967663e+02
4.440000000000000000e+02 4.205444815139041737e+01
4.450000000000000000e+02 6.493634342252647684e+01
4.460000000000000000e+02 9.693262006222767013e+01
4.470000000000000000e+02 1.225149007465786894e+02
4.480000000000000000e+02 2.787525537025529729e+02
4.490000000000000000e+02 4.028800900435597896e+02
4.500000000000000000e+02 4.901130577353814033e+02
4.510000000000000000e+02 5.772254142086723050e+02
4.520000000000000000e+02 6.695503716656301094e+02
4.530000000000000000e+02 6.955803036714382870e+02
4.540000000000000000e+02 6.308231914125667572e+02
4.550000000000000000e+02 4.654102754822603174e+02
4.560000000000000000e+02 2.512010404895281681e+02
4.570000000000000000e+02 8.866393261149359262e+01
4.580000000000000000e+02 3.272797626011278282e+01
4.590000000000000000e+02 9.858389200995802071e+00
4.600000000000000000e+02 3.226412982991004696e+01
4.610000000000000000e+02 5.728320783240013725e+01
4.620000000000000000e+02 2.603410823895453419e+01
4.630000000000000000e+02 3.640206002489107107e+01
4.640000000000000000e+02 3.278811115328730352e+01
4.650000000000000000e+02 2.626678993880899426e+01
4.660000000000000000e+02 2.877640515245793651e+01
4.670000000000000000e+02 1.402450497386962880e+01
4.680000000000000000e+02 7.093614303671218480e+00
4.690000000000000000e+02 7.531028425637924784e+01
4.700000000000000000e+02 4.240598918871922507e+01
4.710000000000000000e+02 5.733099117403028089e+01
4.720000000000000000e+02 6.089629590541383664e+01
4.730000000000000000e+02 7.198850145582734683e+01
4.740000000000000000e+02 1.218832336444708915e+02
4.750000000000000000e+02 1.288425819332093738e+02
4.760000000000000000e+02 1.586936133969305160e+02
4.770000000000000000e+02 2.316837334163031699e+02
4.780000000000000000e+02 2.140692644264666455e+02
4.790000000000000000e+02 2.803407213233770108e+02
4.800000000000000000e+02 3.137713298070939345e+02
4.810000000000000000e+02 2.916565174859991885e+02
4.820000000000000000e+02 2.605399705662727001e+02
4.830000000000000000e+02 2.615139348267992432e+02
4.840000000000000000e+02 1.906413431653184034e+02
4.850000000000000000e+02 1.701168820161792894e+02
4.860000000000000000e+02 1.188270665774718964e+02
4.870000000000000000e+02 6.314248570421077034e+01
4.880000000000000000e+02 1.068634332628090959e+02
4.890000000000000000e+02 1.104947518772039246e+02
4.900000000000000000e+02 1.640088217797151060e+02
4.910000000000000000e+02 1.655665306160553882e+02
4.920000000000000000e+02 1.255536173786812668e+02
4.930000000000000000e+02 1.284885537025511155e+02
4.940000000000000000e+02 1.667873743621654512e+02
4.950000000000000000e+02 1.529764697013689840e+02
4.960000000000000000e+02 1.411943265090230284e+02
4.970000000000000000e+02 1.285441776394939666e+02
4.980000000000000000e+02 1.065424114475321460e+02
4.990000000000000000e+02 1.084066941713336689e+02
5.000000000000000000e+02 5.827249229620380788e+01
5.010000000000000000e+02 8.498328493778663528e+01
5.020000000000000000e+02 1.054650802323163816e+02
5.030000000000000000e+02 7.846065555901242305e+01
5.040000000000000000e+02 8.942729229780137246e+01
5.050000000000000000e+02 1.311297810205354324e+02
5.060000000000000000e+02 8.571950747147842264e+01
5.070000000000000000e+02 1.369784020120283969e+02
5.080000000000000000e+02 2.402838518149763729e+02
5.090000000000000000e+02 2.374596242065950378e+02
5.100000000000000000e+02 3.137231685749839585e+02
5.110000000000000000e+02 4.096700250777837482e+02
5.120000000000000000e+02 4.709238849408829424e+02
5.130000000000000000e+02 5.620417451566038380e+02
5.140000000000000000e+02 6.949186202862462096e+02
5.150000000000000000e+02 7.159609523127982129e+02
5.160000000000000000e+02 8.016118655465675147e+02
5.170000000000000000e+02 8.078240737606304265e+02
5.180000000000000000e+02 8.093862963708005509e+02
5.190000000000000000e+02 8.559061821406349964e+02
5.200000000000000000e+02 8.839323825969720474e+02
5.210000000000000000e+02 9.668305026130236683e+02
5.220000000000000000e+02 8.864445408421473758e+02
5.230000000000000000e+02 9.064918372121973107e+02
5.240000000000000000e+02 9.601326765242631609e+02
5.250000000000000000e+02 7.833267684920126612e+02
5.260000000000000000e+02 6.658999491184401904e+02
5.270000000000000000e+02 6.428679673994192854e+02
5.280000000000000000e+02 5.838444814561289604e+02
5.290000000000000000e+02 4.893272981953955991e+02
5.300000000000000000e+02 4.041745379925335442e+02
5.310000000000000000e+02 3.261032723293924391e+02
5.320000000000000000e+02 3.381928570006223822e+02
5.330000000000000000e+02 2.688566678282508065e+02
5.340000000000000000e+02 2.221943313005599805e+02
5.350000000000000000e+02 2.150827692180054669e+02
5.360000000000000000e+02 1.561628917029661068e+02
5.370000000000000000e+02 1.469386322962038776e+02
5.380000000000000000e+02 1.684639125492635117e+02
5.390000000000000000e+02 1.542549263223397418e+02
5.400000000000000000e+02 1.548829051856461945e+02
5.410000000000000000e+02 1.831582428126936293e+02
5.420000000000000000e+02 2.566646296204103237e+02
5.430000000000000000e+02 2.695403810205351647e+02
5.440000000000000000e+02 3.085772726197870384e+02
5.450000000000000000e+02 2.913515160962464279e+02
5.460000000000000000e+02 2.068847373988803042e+02
5.470000000000000000e+02 1.657032504355051969e+02
5.480000000000000000e+02 1.158114092097070653e+02
5.490000000000000000e+02 9.230741237917432329e+01
5.500000000000000000e+02 8.263911627540457516e+01
5.510000000000000000e+02 9.864085610454178266e+01
5.520000000000000000e+02 1.289768290603611831e+02
5.530000000000000000e+02 1.001251850788055151e+02
5.540000000000000000e+02 1.578877792574137686e+02
5.550000000000000000e+02 1.751808076540142451e+02
5.560000000000000000e+02 1.782515801742010240e+02
5.570000000000000000e+02 1.881517256378347440e+02
5.580000000000000000e+02 1.330557506948790660e+02
5.590000000000000000e+02 4.047870474174433575e+00
5.600000000000000000e+02 4.978833096453019635e+01
5.610000000000000000e+02 2.150908787323262317e+01
5.620000000000000000e+02 1.617681435386855071e+01
5.630000000000000000e+02 1.428107314768738867e+01
5.640000000000000000e+02 7.563712468575000969e+01
5.650000000000000000e+02 6.626356911014258344e+01
5.660000000000000000e+02 9.846032139390368343e+01
5.670000000000000000e+02 1.360072000414853619e+02
5.680000000000000000e+02 1.021517542874944127e+02
5.690000000000000000e+02 1.770534169882078857e+01
5.700000000000000000e+02 2.670033769135156732e+01
5.710000000000000000e+02 2.963626617713961053e+01
5.720000000000000000e+02 5.933593835717920228e+01
5.730000000000000000e+02 1.980153258813756736e+02
5.740000000000000000e+02 2.245637205351584385e+02
5.750000000000000000e+02 2.439671876789038834e+02
5.760000000000000000e+02 2.984907856283685987e+02
5.770000000000000000e+02 4.166222359261564065e+02
5.780000000000000000e+02 5.077493830740509679e+02
5.790000000000000000e+02 5.513437571132316180e+02
5.800000000000000000e+02 6.043328460070533765e+02
5.810000000000000000e+02 6.315444279402618122e+02
5.820000000000000000e+02 6.742301531107401615e+02
5.830000000000000000e+02 6.971415331673930496e+02
5.840000000000000000e+02 7.094799316946701992e+02
5.850000000000000000e+02 6.894162428541819736e+02
5.860000000000000000e+02 5.602465667703862664e+02
5.870000000000000000e+02 4.345067612608830814e+02
5.880000000000000000e+02 3.756759050404487539e+02
5.890000000000000000e+02 3.608471315079858073e+02
5.900000000000000000e+02 3.826622852343413683e+02
5.910000000000000000e+02 3.991426733250366965e+02
5.920000000000000000e+02 3.154958340385812221e+02
5.930000000000000000e+02 4.229602756532568151e+02
5.940000000000000000e+02 4.671648549263634322e+02
5.950000000000000000e+02 4.266233634308227920e+02
5.960000000000000000e+02 4.037520910825385840e+02
5.970000000000000000e+02 4.159508897324207055e+02
5.980000000000000000e+02 3.568581182949622530e+02
5.990000000000000000e+02 3.553214526239369775e+02
6.000000000000000000e+02 3.406835386561572818e+02
6.010000000000000000e+02 2.900350007674780386e+02
6.020000000000000000e+02 2.345649405102679168e+02
6.030000000000000000e+02 2.229163151182092690e+02
6.040000000000000000e+02 1.761020474175482775e+02
6.050000000000000000e+02 2.389180252644668201e+02
6.060000000000000000e+02 2.476039639983409018e+02
6.070000000000000000e+02 1.986596920348473532e+02
6.080000000000000000e+02 2.092343804190005585e+02
6.090000000000000000e+02 2.465673569265869958e+02
6.100000000000000000e+02 1.799033924289540778e+02
6.110000000000000000e+02 1.706595032358440847e+02
6.120000000000000000e+02 1.688166966403969980e+02
6.130000000000000000e+02 1.698065712507818432e+02
6.140000000000000000e+02 2.043982644472059746e+02
6.150000000000000000e+02 9.670395989836117678e+01
6.160000000000000000e+02 1.670678044181680377e+02
6.170000000000000000e+02 1.273172729931503255e+02
6.180000000000000000e+02 8.235568159095535634e+01
6.190000000000000000e+02 1.221176650487452378e+02
6.200000000000000000e+02 1.181057174859982979e+02
6.210000000000000000e+02 1.688762490354700390e+02
6.220000000000000000e+02 1.497068366936318569e+02
6.230000000000000000e+02 1.372012054552997711e+02
6.240000000000000000e+02 1.076417173407990902e+02
6.250000000000000000e+02 5.901013227753509227e+01
6.260000000000000000e+02 7.967995923268355796e+01
6.270000000000000000e+02 7.829467175897195830e+01
6.280000000000000000e+02 1.094316710226102458e+02
6.290000000000000000e+02 1.091515518871831034e+02
6.300000000000000000e+02 1.344822387056659920e+02
6.310000000000000000e+02 1.982735850238533999e+02
6.320000000000000000e+02 1.812886017834931067e+02
6.330000000000000000e+02 2.740279702966170134e+02
6.340000000000000000e+02 2.547918445550702415e+02
6.350000000000000000e+02 2.603071808378285823e+02
6.360000000000000000e+02 3.357986214893174406e+02
6.370000000000000000e+02 4.150099924082138614e+02
6.380000000000000000e+02 4.883764717544599421e+02
6.390000000000000000e+02 5.160641493466089287e+02
6.400000000000000000e+02 5.459255199958519142e+02
6.410000000000000000e+02 5.954333252437268129e+02
6.420000000000000000e+02 6.045581997718302318e+02
6.430000000000000000e+02 5.639454846297452377e+02
6.440000000000000000e+02 6.410609799626658969e+02
6.450000000000000000e+02 7.658637531217606238e+02
6.460000000000000000e+02 8.599943901472727248e+02
6.470000000000000000e+02 9.456064402613583297e+02
6.480000000000000000e+02 1.080532207218421263e+03
6.490000000000000000e+02 1.290372440572495407e+03
6.500000000000000000e+02 1.525299347853140716e+03
6.510000000000000000e+02 1.672380696950838910e+03
6.520000000000000000e+02 1.948972131300558885e+03
6.530000000000000000e+02 2.353992556938399957e+03
6.540000000000000000e+02 2.772126707736984827e+03
6.550000000000000000e+02 3.137427046868518119e+03
6.560000000000000000e+02 3.545735751503841584e+03
6.570000000000000000e+02 4.095846145612942564e+03
6.580000000000000000e+02 4.700736420987141173e+03
6.590000000000000000e+02 5.328023589919106598e+03
6.600000000000000000e+02 5.970832773076122066e+03
6.610000000000000000e+02 6.624447288054749151e+03
6.620000000000000000e+02 7.281078586807716420e+03
6.630000000000000000e+02 7.875402249948137978e+03
6.640000000000000000e+02 8.256664057237661837e+03
6.650000000000000000e+02 8.399692164488695198e+03
6.660000000000000000e+02 8.234479118855013439e+03
6.670000000000000000e+02 7.717530201617921193e+03
6.680000000000000000e+02 7.233465895042518241e+03
6.690000000000000000e+02 6.596893889050194957e+03
6.700000000000000000e+02 5.914003443061606959e+03
6.710000000000000000e+02 5.350577791537030862e+03
6.720000000000000000e+02 5.003681269182913638e+03
6.730000000000000000e+02 4.831732029039619192e+03
6.740000000000000000e+02 4.698451348682847311e+03
6.750000000000000000e+02 4.645973366860223905e+03
6.760000000000000000e+02 4.725039756689482601e+03
6.770000000000000000e+02 4.972243044389124407e+03
6.780000000000000000e+02 5.335956082953128316e+03
6.790000000000000000e+02 5.779982040448033331e+03
6.800000000000000000e+02 6.390245339141244585e+03
6.810000000000000000e+02 6.972847166770381591e+03
6.820000000000000000e+02 7.578293874299938579e+03
6.830000000000000000e+02 8.251854458618543504e+03
6.840000000000000000e+02 8.966780111802521787e+03
6.850000000000000000e+02 9.623102662103308830e+03
6.860000000000000000e+02 1.006220666168845673e+04
6.870000000000000000e+02 1.061520899398464462e+04
6.880000000000000000e+02 1.064563976975731748e+04
6.890000000000000000e+02 1.034752737398881072e+04
6.900000000000000000e+02 9.757234716863737049e+03
6.910000000000000000e+02 8.779487378759624335e+03
6.920000000000000000e+02 7.704056243517985422e+03
6.930000000000000000e+02 6.604832980916849010e+03
6.940000000000000000e+02 5.460864298070968289e+03
6.950000000000000000e+02 4.531121012028223959e+03
6.960000000000000000e+02 3.732188927815809620e+03
6.970000000000000000e+02 2.980653772868702617e+03
6.980000000000000000e+02 2.495379547905432901e+03
6.990000000000000000e+02 2.072652893590535314e+03
7.000000000000000000e+02 1.766954207218415149e+03
7.010000000000000000e+02 1.445613853587735775e+03
7.020000000000000000e+02 1.220543457788843170e+03
7.030000000000000000e+02 1.094379963285618032e+03
7.040000000000000000e+02 8.563040685192942192e+02
7.050000000000000000e+02 7.116847984443108999e+02
7.060000000000000000e+02 6.290854144990698842e+02
7.070000000000000000e+02 5.672260398257636780e+02
7.080000000000000000e+02 5.541437423148714743e+02
7.090000000000000000e+02 5.076606307197742467e+02
7.100000000000000000e+02 3.378274594689902983e+02
7.110000000000000000e+02 3.072605814768727441e+02
7.120000000000000000e+02 1.977657615432496243e+02
7.130000000000000000e+02 1.666033960174239610e+02
7.140000000000000000e+02 1.619437231072388670e+02
7.150000000000000000e+02 1.309524866002901149e+02
7.160000000000000000e+02 1.069589468782406811e+02
7.170000000000000000e+02 9.252436085251889608e+01
7.180000000000000000e+02 2.964555398879879888e+01
7.190000000000000000e+02 7.114218405932264488e+01
7.200000000000000000e+02 1.100844194109137959e+02
7.210000000000000000e+02 6.307323482994167563e+01
7.220000000000000000e+02 5.231930095208832654e+01
7.230000000000000000e+02 5.722407386849290134e+01
7.240000000000000000e+02 8.973560073826821082e+00
7.250000000000000000e+02 5.777956885086314109e+00
7.260000000000000000e+02 6.439267775979865860e+01
7.270000000000000000e+02 9.614543354002529441e+01
7.280000000000000000e+02 2.192438035262357587e+01
7.290000000000000000e+02 1.676939591993355450e+01
7.300000000000000000e+02 6.216068608461335998e+01
7.310000000000000000e+02 3.287017322962132937e+01
7.320000000000000000e+02 1.985482704417984934e+01
7.330000000000000000e+02 1.301370128369728096e+00
7.340000000000000000e+02 3.693626950840360479e+01
7.350000000000000000e+02 3.882501298071319695e+01
7.360000000000000000e+02 1.880457006845087449e+02
7.370000000000000000e+02 3.905620650528517501e+01
7.380000000000000000e+02 8.529306571962260364e+01
7.390000000000000000e+02 4.871812823086872157e+01
7.400000000000000000e+02 3.632712230817130461e+01
7.410000000000000000e+02 8.096901188550093664e+00
7.420000000000000000e+02 4.548755850238529774e+01
7.430000000000000000e+02 1.286208979676492277e+02
7.440000000000000000e+02 1.209904026965352415e+02
7.450000000000000000e+02 1.393933429993785751e+02
7.460000000000000000e+02 1.744510056615521592e+02
7.470000000000000000e+02 2.140233695913734095e+02
7.480000000000000000e+02 2.721690861439525406e+02
7.490000000000000000e+02 2.608808944409839796e+02
7.500000000000000000e+02 3.600497655258272403e+02
7.510000000000000000e+02 3.850505064288681751e+02
7.520000000000000000e+02 4.883744091889597598e+02
7.530000000000000000e+02 5.609153555901284562e+02
7.540000000000000000e+02 5.192573549979280187e+02
7.550000000000000000e+02 5.451963229620413358e+02
7.560000000000000000e+02 4.169644371084846171e+02
7.570000000000000000e+02 3.954832031522190050e+02
7.580000000000000000e+02 3.024158000829679054e+02
7.590000000000000000e+02 1.973703495955185190e+02
7.600000000000000000e+02 1.760894024678559049e+02
7.610000000000000000e+02 2.138790748392461012e+02
7.620000000000000000e+02 2.184363036714342741e+02
7.630000000000000000e+02 6.685277068657518384e+01
7.640000000000000000e+02 3.003434739265763298e+01
7.650000000000000000e+02 4.772509275254113703e+01
7.660000000000000000e+02 2.721820573117722120e+01
7.670000000000000000e+02 2.246483152872741584e+01
7.680000000000000000e+02 7.722642494710662220e+01
7.690000000000000000e+02 2.436600671437536292e+01
7.700000000000000000e+02 3.000010953536502711e+00
7.710000000000000000e+02 8.183276428956493476e+01
7.720000000000000000e+02 1.233808805227130563e+02
7.730000000000000000e+02 7.192947639701245066e+01
7.740000000000000000e+02 3.216504715618842880e+00
7.750000000000000000e+02 1.188341604853718714e+01
7.760000000000000000e+02 1.505838185231333703e+01
7.770000000000000000e+02 5.429620687474092477e+01
7.780000000000000000e+02 2.359111211823141474e+01
7.790000000000000000e+02 6.289503397220324032e+00
7.800000000000000000e+02 2.253552602239781777e+01
7.810000000000000000e+02 3.419551657954731638e+01
7.820000000000000000e+02 5.921252258867460760e+00
7.830000000000000000e+02 5.814891683948663115e+01
7.840000000000000000e+02 5.553880266334737570e+01
7.850000000000000000e+02 1.348155080273804742e+02
7.860000000000000000e+02 1.545362184985469867e+02
7.870000000000000000e+02 5.834104023024255525e+01
7.880000000000000000e+02 9.315483892760832418e+01
7.890000000000000000e+02 5.961935765193970838e+01
7.900000000000000000e+02 1.146437681808755400e+02
7.910000000000000000e+02 1.523863836963285223e+02
7.920000000000000000e+02 1.279897715619160863e+02
7.930000000000000000e+02 1.249248215722878825e+02
7.940000000000000000e+02 1.548580505496790636e+02
7.950000000000000000e+02 9.580707679112201447e+01
7.960000000000000000e+02 1.202144620410700924e+02
7.970000000000000000e+02 2.039494272142697184e+02
7.980000000000000000e+02 2.218551327110557452e+02
7.990000000000000000e+02 2.373312178593649548e+02
8.000000000000000000e+02 2.510029286247669233e+02
8.010000000000000000e+02 2.282216708774113556e+02
8.020000000000000000e+02 2.547188249325870686e+02
8.030000000000000000e+02 1.535865329738699074e+02
8.040000000000000000e+02 2.549940882596964116e+02
8.050000000000000000e+02 2.940253780958301491e+02
8.060000000000000000e+02 2.761577860638738002e+02
8.070000000000000000e+02 3.207279297448652073e+02
8.080000000000000000e+02 4.035446241236249421e+02
8.090000000000000000e+02 4.230434979261714261e+02
8.100000000000000000e+02 4.542777135034222056e+02
8.110000000000000000e+02 4.234298241858548408e+02
8.120000000000000000e+02 3.933151108875987916e+02
8.130000000000000000e+02 4.374197324206580788e+02
8.140000000000000000e+02 4.625127253266967386e+02
8.150000000000000000e+02 3.749598269446167365e+02
8.160000000000000000e+02 4.272469249533299944e+02
8.170000000000000000e+02 3.226658579132968043e+02
8.180000000000000000e+02 3.379578133582248824e+02
8.190000000000000000e+02 2.869637669570615799e+02
8.200000000000000000e+02 2.609547897324216592e+02
8.210000000000000000e+02 3.094804223190214429e+02
8.220000000000000000e+02 2.732320668948344746e+02
8.230000000000000000e+02 2.755351378344745399e+02
8.240000000000000000e+02 2.814158512134414991e+02
8.250000000000000000e+02 2.173439553204756010e+02
8.260000000000000000e+02 1.832368271727861213e+02
8.270000000000000000e+02 2.310807701929037705e+02
8.280000000000000000e+02 3.179996586807685617e+02
8.290000000000000000e+02 3.525386849232700683e+02
8.300000000000000000e+02 2.970279219456553506e+02
8.310000000000000000e+02 2.489945268823900335e+02
8.320000000000000000e+02 2.319194014516798177e+02
8.330000000000000000e+02 2.484035279402615402e+02
8.340000000000000000e+02 2.572416629122587324e+02
8.350000000000000000e+02 2.790410038780602235e+02
8.360000000000000000e+02 3.554234642605276804e+02
8.370000000000000000e+02 3.681956535158691395e+02
8.380000000000000000e+02 4.793935755288210885e+02
8.390000000000000000e+02 5.219550190209494076e+02
8.400000000000000000e+02 5.807779023646588712e+02
8.410000000000000000e+02 6.626335731646590830e+02
8.420000000000000000e+02 7.932049648413079694e+02
8.430000000000000000e+02 9.853327078614390757e+02
8.440000000000000000e+02 9.985817413814532983e+02
8.450000000000000000e+02 1.166521918274213476e+03
8.460000000000000000e+02 1.281055130678281103e+03
8.470000000000000000e+02 1.304160689483509714e+03
8.480000000000000000e+02 1.347395446380418889e+03
8.490000000000000000e+02 1.388041584526032239e+03
8.500000000000000000e+02 1.309005725990456085e+03
8.510000000000000000e+02 1.185702652769132555e+03
8.520000000000000000e+02 1.058735901680147208e+03
8.530000000000000000e+02 1.005260933623728420e+03
8.540000000000000000e+02 1.017204117403029841e+03
8.550000000000000000e+02 1.006549512484444222e+03
8.560000000000000000e+02 9.450507569383987629e+02
8.570000000000000000e+02 8.590301460485335383e+02
8.580000000000000000e+02 7.881338054749068078e+02
8.590000000000000000e+02 7.906225687616692994e+02
8.600000000000000000e+02 6.757432208463010284e+02
8.610000000000000000e+02 6.422235403152217259e+02
8.620000000000000000e+02 5.909204574154748570e+02
8.630000000000000000e+02 5.291234006430200907e+02
8.640000000000000000e+02 4.841562899834085556e+02
8.650000000000000000e+02 3.457280418170487337e+02
8.660000000000000000e+02 2.759896224227331913e+02
8.670000000000000000e+02 2.273066213604297445e+02
8.680000000000000000e+02 1.693405546359654181e+02
8.690000000000000000e+02 1.585824890479156011e+02
8.700000000000000000e+02 1.453905836340984763e+02
8.710000000000000000e+02 1.323386676208276640e+02
8.720000000000000000e+02 1.602553259904561571e+02
8.730000000000000000e+02 7.994735836548456120e+01
8.740000000000000000e+02 1.183086411947739549e+02
8.750000000000000000e+02 9.249365875129505810e+01
8.760000000000000000e+02 1.894952287658252033e+01
8.770000000000000000e+02 2.336483049159929948e+01
8.780000000000000000e+02 1.734045364654602039e+01
8.790000000000000000e+02 4.810215701306781710e+01
8.800000000000000000e+02 7.714204724952022474e+00
8.810000000000000000e+02 9.140327610247021539e+01
8.820000000000000000e+02 3.973280102032438066e+01
8.830000000000000000e+02 2.053741399710013127e+01
8.840000000000000000e+02 3.927012165089943352e+01
8.850000000000000000e+02 4.410595362921005957e+00
8.860000000000000000e+02 2.082271531425119093e+01
8.870000000000000000e+02 2.478984576021819919e+01
8.880000000000000000e+02 9.640472474077265019e+01
8.890000000000000000e+02 8.684270837585592062e+01
8.900000000000000000e+02 9.222652711055776820e+01
8.910000000000000000e+02 3.633675519701396439e+01
8.920000000000000000e+02 7.750667525617149067e+01
8.930000000000000000e+02 1.268124285003109435e+02
8.940000000000000000e+02 7.247329985483240478e+01
8.950000000000000000e+02 2.510601000000023078e+02
8.960000000000000000e+02 5.931434321095143503e+01
8.970000000000000000e+02 1.032112866957084947e+02
8.980000000000000000e+02 1.287971515868071606e+02
8.990000000000000000e+02 1.079282750881555870e+02
9.000000000000000000e+02 6.221338115950820935e+01
9.010000000000000000e+02 1.093876415681338621e+01
9.020000000000000000e+02 2.663288045488576827e+01
9.030000000000000000e+02 1.140266369010575147e+02
9.040000000000000000e+02 4.332598015971640848e+01
9.050000000000000000e+02 4.050726797552400171e+01
9.060000000000000000e+02 5.832691989628706608e+01
9.070000000000000000e+02 7.694285231487234000e+01
9.080000000000000000e+02 7.554356142501566751e+01
9.090000000000000000e+02 5.004699451980973635e+01
9.100000000000000000e+02 7.956040372744256217e+01
9.110000000000000000e+02 9.225905425134804716e+01
9.120000000000000000e+02 1.145410291848169635e+02
9.130000000000000000e+02 1.642687529558185986e+02
9.140000000000000000e+02 2.402317849854836140e+02
9.150000000000000000e+02 2.750538936112836836e+02
9.160000000000000000e+02 2.897779710640946291e+02
9.170000000000000000e+02 3.959236793861477963e+02
9.180000000000000000e+02 5.009368235843187449e+02
9.190000000000000000e+02 3.749475887990047340e+02
9.200000000000000000e+02 4.080404602861890453e+02
9.210000000000000000e+02 5.559229855009339190e+02
9.220000000000000000e+02 6.237105082140633385e+02
9.230000000000000000e+02 6.707966624144377192e+02
9.240000000000000000e+02 7.448046278365484341e+02
9.250000000000000000e+02 7.799179804604873425e+02
9.260000000000000000e+02 9.327716973864347665e+02
9.270000000000000000e+02 9.611862714996888144e+02
9.280000000000000000e+02 9.684109107239162313e+02
9.290000000000000000e+02 9.490560649242895579e+02
9.300000000000000000e+02 8.973064305538275676e+02
9.310000000000000000e+02 8.420514551960181961e+02
9.320000000000000000e+02 7.769088238124872987e+02
9.330000000000000000e+02 7.190911890479152362e+02
9.340000000000000000e+02 8.115087070939621299e+02
9.350000000000000000e+02 7.921771207218422433e+02
9.360000000000000000e+02 7.511224987347029582e+02
9.370000000000000000e+02 7.115377613023651975e+02
9.380000000000000000e+02 6.667867866625177840e+02
9.390000000000000000e+02 5.852002336652140002e+02
9.400000000000000000e+02 5.082978830775613801e+02
9.410000000000000000e+02 4.612046693009773435e+02
9.420000000000000000e+02 3.097727178386213041e+02
9.430000000000000000e+02 3.426336090004141397e+02
9.440000000000000000e+02 2.318536799004384932e+02
9.450000000000000000e+02 1.612501974694050944e+02
9.460000000000000000e+02 1.703618527167145373e+02
9.470000000000000000e+02 1.071916945322579977e+02
9.480000000000000000e+02 2.791797805849365233e+01
9.490000000000000000e+02 1.255668088739097072e+02
9.500000000000000000e+02 1.079467192055615499e+02
9.510000000000000000e+02 1.072064910350480282e+01
9.520000000000000000e+02 1.633285763119691225e+01
9.530000000000000000e+02 5.184876490976975560e+01
9.540000000000000000e+02 1.976123997469412785e+01
9.550000000000000000e+02 3.314499058494164530e+01
9.560000000000000000e+02 2.662862374548699052e+01
9.570000000000000000e+02 1.011712032047238452e+01
9.580000000000000000e+02 5.644653771001779319e+01
9.590000000000000000e+02 1.886710789255575449e+01
9.600000000000000000e+02 3.069341273594847763e+01
9.610000000000000000e+02 1.020025481020692482e+01
9.620000000000000000e+02 2.390468653889021056e+01
9.630000000000000000e+02 3.679943168395064390e+01
9.640000000000000000e+02 3.569302937148989052e+00
9.650000000000000000e+02 2.178907889442112022e+01
9.660000000000000000e+02 1.719685523641527780e+01
9.670000000000000000e+02 5.798928773490965227e+01
9.680000000000000000e+02 5.443361693632044052e+01
9.690000000000000000e+02 1.583672691082526285e+01
9.700000000000000000e+02 4.038652298693328646e+01
9.710000000000000000e+02 3.108617875544435805e+01
9.720000000000000000e+02 6.980372502903294674e+01
9.730000000000000000e+02 1.617031041070130826e+01
9.740000000000000000e+02 3.901785597967518271e+01
9.750000000000000000e+02 1.700526400663572417e+02
9.760000000000000000e+02 1.644721509023045485e+02
9.770000000000000000e+02 1.663781008504454064e+02
9.780000000000000000e+02 1.065127103650717828e+02
9.790000000000000000e+02 9.901169004355664072e+01
9.800000000000000000e+02 1.761990359054113640e+02
9.810000000000000000e+02 2.523183462352198489e+02
9.820000000000000000e+02 3.218728915992529096e+02
9.830000000000000000e+02 3.042474235220919354e+02
9.840000000000000000e+02 1.893509038166347409e+02
9.850000000000000000e+02 2.403790403858129707e+02
9.860000000000000000e+02 3.470735156399094876e+02
9.870000000000000000e+02 3.615500023231682576e+02
9.880000000000000000e+02 4.158737603401826277e+02
9.890000000000000000e+02 5.243670093341644360e+02
9.900000000000000000e+02 5.185751987554493780e+02
9.910000000000000000e+02 6.102283860609867361e+02
9.920000000000000000e+02 7.093653898382474381e+02
9.930000000000000000e+02 8.975502886330581305e+02
9.940000000000000000e+02 9.658354449284393013e+02
9.950000000000000000e+02 1.087569377021989339e+03
9.960000000000000000e+02 1.181423694669156248e+03
9.970000000000000000e+02 1.356133591163650863e+03
9.980000000000000000e+02 1.711909351721276153e+03
9.990000000000000000e+02 1.901806810827629761e+03
1.000000000000000000e+03 2.222784791329600466e+03
1.001000000000000000e+03 2.712428651452268241e+03
1.002000000000000000e+03 3.141023966804985321e+03
1.003000000000000000e+03 3.799417711618245903e+03
1.004000000000000000e+03 4.570091242738620167e+03
1.005000000000000000e+03 5.415364186721983970e+03
1.006000000000000000e+03 6.321065316770213940e+03
1.007000000000000000e+03 7.216305639004172917e+03
1.008000000000000000e+03 8.271099568464698677e+03
1.009000000000000000e+03 9.265811991701273655e+03
1.010000000000000000e+03 1.023560257261408697e+04
1.011000000000000000e+03 1.088530155601659499e+04
1.012000000000000000e+03 1.129126163900415122e+04
1.013000000000000000e+03 1.117668850622407263e+04
1.014000000000000000e+03 1.063191518672198254e+04
1.015000000000000000e+03 9.793438423236530070e+03
1.016000000000000000e+03 8.609295991701192179e+03
1.017000000000000000e+03 7.630689132780089494e+03
1.018000000000000000e+03 6.928785464730267449e+03
1.019000000000000000e+03 6.430016576763477133e+03
1.020000000000000000e+03 6.115661155601666906e+03
1.021000000000000000e+03 5.832173914937752670e+03
1.022000000000000000e+03 5.825925375518665533e+03
1.023000000000000000e+03 6.033520253112033970e+03
1.024000000000000000e+03 6.248645684647304734e+03
1.025000000000000000e+03 6.676124717842353675e+03
1.026000000000000000e+03 7.154137141078823333e+03
1.027000000000000000e+03 7.714060095238082795e+03
1.028000000000000000e+03 8.311896043568491223e+03
1.029000000000000000e+03 8.846220788381795501e+03
1.030000000000000000e+03 9.297382670124454307e+03
1.031000000000000000e+03 9.630036871369298751e+03
1.032000000000000000e+03 9.783718755186722774e+03
1.033000000000000000e+03 9.725783178423254867e+03
1.034000000000000000e+03 9.444652858921172083e+03
1.035000000000000000e+03 9.013155656314682346e+03
1.036000000000000000e+03 8.636439184647293587e+03
1.037000000000000000e+03 8.173749719917036600e+03
1.038000000000000000e+03 7.636462024896258299e+03
1.039000000000000000e+03 6.968061342323597273e+03
1.040000000000000000e+03 6.358927933609993488e+03
1.041000000000000000e+03 5.696042253112040271e+03
1.042000000000000000e+03 4.887928987551828868e+03
1.043000000000000000e+03 4.247322182572544989e+03
1.044000000000000000e+03 3.651352539419101049e+03
1.045000000000000000e+03 3.225213966804966731e+03
1.046000000000000000e+03 2.770686956431497947e+03
1.047000000000000000e+03 2.382225289855097799e+03
1.048000000000000000e+03 2.024859817427384087e+03
1.049000000000000000e+03 1.730261850622391194e+03
1.050000000000000000e+03 1.528721817427382803e+03
1.051000000000000000e+03 1.334508381742748497e+03
1.052000000000000000e+03 1.141061002074684666e+03
1.053000000000000000e+03 1.126069033195022712e+03
1.054000000000000000e+03 1.158396450207467296e+03
1.055000000000000000e+03 1.143262948132780139e+03
1.056000000000000000e+03 1.161739478260872147e+03
1.057000000000000000e+03 1.211573066390036956e+03
1.058000000000000000e+03 1.187499024896267656e+03
1.059000000000000000e+03 1.139294278008298079e+03
1.060000000000000000e+03 1.056922668257244595e+03
1.061000000000000000e+03 8.581049255186782148e+02
1.062000000000000000e+03 7.394818531120314447e+02
1.063000000000000000e+03 6.064455435684591293e+02
1.064000000000000000e+03 5.723083014492797247e+02
1.065000000000000000e+03 4.133911551867238359e+02
1.066000000000000000e+03 3.140734286307029492e+02
1.067000000000000000e+03 2.265563825726202367e+02
1.068000000000000000e+03 1.177619049792592847e+02
1.069000000000000000e+03 7.772264348547759027e+01
1.070000000000000000e+03 8.752487188796520456e+01
1.071000000000000000e+03 3.420916273858399848e+01
1.072000000000000000e+03 9.709618637681138864e+01
1.073000000000000000e+03 8.452756514522337739e+01
1.074000000000000000e+03 7.503290639004222662e+00
1.075000000000000000e+03 6.500773825725833888e+01
1.076000000000000000e+03 7.265115440993628226e+01
1.077000000000000000e+03 1.553908492116206297e+01
1.078000000000000000e+03 4.183423674273478099e+01
1.079000000000000000e+03 2.941155537344436155e+01
1.080000000000000000e+03 5.430241031120159789e+01
1.081000000000000000e+03 3.782565219916534716e+01
1.082000000000000000e+03 1.427262556016705730e+01
1.083000000000000000e+03 1.741457867220033817e+00
1.084000000000000000e+03 2.277557578423517270e+01
1.085000000000000000e+03 3.270585091286531565e+01
1.086000000000000000e+03 5.300057161825824181e+01
1.087000000000000000e+03 4.232839964730073490e+01
1.088000000000000000e+03 2.961252654357561909e+01
1.089000000000000000e+03 2.474581196265616256e+01
1.090000000000000000e+03 2.024494576763650855e+01
1.091000000000000000e+03 2.140641251867253914e+01
1.092000000000000000e+03 4.685260663900197642e+01
1.093000000000000000e+03 2.806926062111756082e+01
1.094000000000000000e+03 8.408793134855459073e+01
1.095000000000000000e+03 1.239981041493762177e+02
1.096000000000000000e+03 8.653986742738719329e+01
1.097000000000000000e+03 1.107279460041459203e+02
1.098000000000000000e+03 1.699676717842340281e+02
1.099000000000000000e+03 1.588224709543567315e+02
1.100000000000000000e+03 1.804054352697107504e+02
1.101000000000000000e+03 2.419144153526985406e+02
1.102000000000000000e+03 2.647807707468858780e+02
1.103000000000000000e+03 2.961370522821576401e+02
1.104000000000000000e+03 2.348085533194996799e+02
1.105000000000000000e+03 2.997187163561081888e+02
1.106000000000000000e+03 3.159463543568481896e+02
1.107000000000000000e+03 3.665655995850669342e+02
1.108000000000000000e+03 4.758078053941968051e+02
1.109000000000000000e+03 4.942231609958507192e+02
1.110000000000000000e+03 4.624603641078833789e+02
1.111000000000000000e+03 4.091922730290429513e+02
1.112000000000000000e+03 4.344630309128579029e+02
1.113000000000000000e+03 4.835873285714279177e+02
1.114000000000000000e+03 4.818509502074667807e+02
1.115000000000000000e+03 4.136825526970920350e+02
1.116000000000000000e+03 3.575752692946078923e+02
1.117000000000000000e+03 2.922382681159409685e+02
1.118000000000000000e+03 2.541869124481368090e+02
1.119000000000000000e+03 2.624876493775961990e+02
1.120000000000000000e+03 2.191089062240671126e+02
1.121000000000000000e+03 1.796283863070516702e+02
1.122000000000000000e+03 1.141068190476221389e+02
1.123000000000000000e+03 1.532547535269686989e+02
1.124000000000000000e+03 1.904319452282162217e+02
1.125000000000000000e+03 1.327313821576741475e+02
1.126000000000000000e+03 1.483214578838150715e+02
1.127000000000000000e+03 1.092842613485483412e+02
1.128000000000000000e+03 4.479066744813343348e+01
1.129000000000000000e+03 8.232175846473344905e+01
1.130000000000000000e+03 1.084556180912882439e+02
1.131000000000000000e+03 3.355960502074529472e+01
1.132000000000000000e+03 1.288737165975137522e+01
1.133000000000000000e+03 3.544514136929375070e+01
1.134000000000000000e+03 1.886738111801235718e+01
1.135000000000000000e+03 4.632914024896358285e+00
1.136000000000000000e+03 4.036470311203062522e+01
1.137000000000000000e+03 3.866082533195017135e+01
1.138000000000000000e+03 9.366846622406680467e+01
1.139000000000000000e+03 2.012899593361542117e+01
1.140000000000000000e+03 3.293216970953754696e+01
1.141000000000000000e+03 1.605293000000000347e+02
1.142000000000000000e+03 1.644814204968914169e+02
1.143000000000000000e+03 1.039023950415004123e+02
1.144000000000000000e+03 4.130448280082989498e+01
1.145000000000000000e+03 1.037365490871396787e+02
1.146000000000000000e+03 8.632387881987641265e+01
1.147000000000000000e+03 1.773614626555942095e+02
1.148000000000000000e+03 1.758531912863053037e+02
1.149000000000000000e+03 1.952849900415039031e+02
1.150000000000000000e+03 2.873394692946038163e+02
1.151000000000000000e+03 2.530135149068326541e+02
1.152000000000000000e+03 1.823722676348503740e+02
1.153000000000000000e+03 1.289381879668102329e+02
1.154000000000000000e+03 1.975734636929442161e+02
1.155000000000000000e+03 2.229669182572627903e+02
1.156000000000000000e+03 2.980785099585085618e+02
1.157000000000000000e+03 2.500720161825794321e+02
1.158000000000000000e+03 2.202324091286304792e+02
1.159000000000000000e+03 2.121684952282138568e+02
1.160000000000000000e+03 1.911132991701247477e+02
1.161000000000000000e+03 2.324882302904528615e+02
1.162000000000000000e+03 2.807090178423231919e+02
1.163000000000000000e+03 2.084271180124144678e+02
1.164000000000000000e+03 1.520399796680523536e+02
1.165000000000000000e+03 1.491328000000000031e+02
1.166000000000000000e+03 8.156981867219728599e+01
1.167000000000000000e+03 7.602526503105012523e+01
1.168000000000000000e+03 1.634695987551851317e+02
1.169000000000000000e+03 1.624161946058070498e+02
1.170000000000000000e+03 1.220891844398337156e+02
1.171000000000000000e+03 9.832705983436981967e+01
1.172000000000000000e+03 1.012506866390046838e+02
1.173000000000000000e+03 1.482855037344447169e+02
1.174000000000000000e+03 1.720190269709569293e+02
1.175000000000000000e+03 1.394308832298132756e+02
1.176000000000000000e+03 2.237329045643188863e+02
1.177000000000000000e+03 1.593827153527052189e+02
1.178000000000000000e+03 5.206063593361469799e+01
1.179000000000000000e+03 1.647278016563153358e+02
1.180000000000000000e+03 1.938782037344387561e+02
1.181000000000000000e+03 2.178771244813228805e+02
1.182000000000000000e+03 2.813844937759328104e+02
1.183000000000000000e+03 2.938485701244794086e+02
1.184000000000000000e+03 2.361568564315426784e+02
1.185000000000000000e+03 1.616346105809160463e+02
1.186000000000000000e+03 1.345937831950220129e+02
1.187000000000000000e+03 2.194722497925355924e+02
1.188000000000000000e+03 2.052991091286341998e+02
1.189000000000000000e+03 1.125134365145228941e+02
1.190000000000000000e+03 1.782706406639061356e+02
1.191000000000000000e+03 1.651621643153583250e+02
1.192000000000000000e+03 5.435676636929614602e+01
1.193000000000000000e+03 4.578957066390290009e+01
1.194000000000000000e+03 9.345051755186771913e+01
1.195000000000000000e+03 8.087718792531502743e+01
1.196000000000000000e+03 2.934586693581791295e+01
1.197000000000000000e+03 4.703222751038499183e+00
1.198000000000000000e+03 9.783767975103501158e+00
1.199000000000000000e+03 1.597645601659623793e+01
1.200000000000000000e+03 1.005933232919260405e+02
1.201000000000000000e+03 3.256260558091315716e+01
1.202000000000000000e+03 5.993164278008309509e+01
1.203000000000000000e+03 4.367704558091330824e+01
1.204000000000000000e+03 7.238068167701662503e+01
1.205000000000000000e+03 3.227372759343012376e+00
1.206000000000000000e+03 1.168284070539358943e+01
1.207000000000000000e+03 4.755303680497939922e+01
1.208000000000000000e+03 3.065922904761762169e+01
1.209000000000000000e+03 2.837588867219814759e+01
1.210000000000000000e+03 9.024333560165889878e+01
1.211000000000000000e+03 3.737013188796765917e+01
1.212000000000000000e+03 9.254123977177972904e+01
1.213000000000000000e+03 1.064622966804979569e+02
1.214000000000000000e+03 4.711213203319131537e+01
1.215000000000000000e+03 6.565785514522616495e+01
1.216000000000000000e+03 2.313597688797121066e+01
1.217000000000000000e+03 4.624137296888316229e+01
1.218000000000000000e+03 8.128711437759301361e+01
1.219000000000000000e+03 8.605798211617923243e+01
1.220000000000000000e+03 1.354788307053936762e+02
1.221000000000000000e+03 1.674068207468868934e+02
1.222000000000000000e+03 1.524425946058100863e+02
1.223000000000000000e+03 1.447894302904562664e+02
1.224000000000000000e+03 1.253931336929436640e+02
1.225000000000000000e+03 1.648824451345754127e+01
1.226000000000000000e+03 2.799553071368856649e+01
1.227000000000000000e+03 1.074741843568468198e+02
1.228000000000000000e+03 1.458817053941918971e+02
1.229000000000000000e+03 1.176214476190492633e+02
1.230000000000000000e+03 2.434949510373399733e+02
1.231000000000000000e+03 1.900408232365028880e+02
1.232000000000000000e+03 1.810712539419019862e+01
1.233000000000000000e+03 1.722902655601599804e+02
1.234000000000000000e+03 2.541645248962639130e+02
1.235000000000000000e+03 1.824182692946066879e+02
1.236000000000000000e+03 1.770270958506330032e+02
1.237000000000000000e+03 6.368474391304354043e+01
1.238000000000000000e+03 1.693281253112114371e+02
1.239000000000000000e+03 2.771988414937762286e+02
1.240000000000000000e+03 1.929620058091357464e+02
1.241000000000000000e+03 1.071878260869554822e+02
1.242000000000000000e+03 1.339957147302982037e+02
1.243000000000000000e+03 1.010435271369368166e+02
1.244000000000000000e+03 1.114218972199155928e+02
1.245000000000000000e+03 1.621342340248945391e+02
1.246000000000000000e+03 7.809500431535447262e+01
1.247000000000000000e+03 8.070592481327612688e+01
1.248000000000000000e+03 1.333082344398346208e+02
1.249000000000000000e+03 1.609211431535327108e+02
1.250000000000000000e+03 2.074897813278030299e+02
1.251000000000000000e+03 1.257615195020745489e+02
1.252000000000000000e+03 1.561403450207513686e+02
1.253000000000000000e+03 2.103392373443984411e+02
1.254000000000000000e+03 1.621423219917027723e+02
1.255000000000000000e+03 1.452144929460591811e+02
1.256000000000000000e+03 1.430951431535255551e+02
1.257000000000000000e+03 1.581404738589188810e+02
1.258000000000000000e+03 1.545604029045638299e+02
1.259000000000000000e+03 1.401246466804981026e+02
1.260000000000000000e+03 1.715453701244790352e+02
1.261000000000000000e+03 1.748828850622432753e+02
1.262000000000000000e+03 9.521595618257094884e+01
1.263000000000000000e+03 8.949254082987756931e+01
1.264000000000000000e+03 1.298139497925306785e+02
1.265000000000000000e+03 1.091546037344395330e+02
1.266000000000000000e+03 1.001069108695664056e+02
1.267000000000000000e+03 1.405149124481294507e+02
1.268000000000000000e+03 1.212002278008305183e+02
1.269000000000000000e+03 8.907172585062158987e+01
1.270000000000000000e+03 8.558558434782601410e+01
1.271000000000000000e+03 1.201179437344379721e+02
1.272000000000000000e+03 2.585677950207521008e+02
1.273000000000000000e+03 3.493438452281980062e+02
1.274000000000000000e+03 1.848993521739152186e+02
1.275000000000000000e+03 2.032505410788385234e+02
1.276000000000000000e+03 2.840973157676265259e+02
1.277000000000000000e+03 1.304206743776028361e+02
1.278000000000000000e+03 1.020718726141075336e+02
1.279000000000000000e+03 1.179722551867230749e+02
1.280000000000000000e+03 1.524183141078831909e+02
1.281000000000000000e+03 1.494583290456440352e+02
1.282000000000000000e+03 1.805226041493772868e+02
1.283000000000000000e+03 1.567582788381685930e+02
1.284000000000000000e+03 8.150761197096097987e+01
1.285000000000000000e+03 1.067307800414908030e+02
1.286000000000000000e+03 1.433404676348541500e+02
1.287000000000000000e+03 8.473072464730340414e+01
1.288000000000000000e+03 5.796255360996356387e+01
1.289000000000000000e+03 2.092648572199336243e+01
1.290000000000000000e+03 1.754923564315406566e+02
1.291000000000000000e+03 1.945918929460635241e+02
1.292000000000000000e+03 1.114082481327805567e+02
1.293000000000000000e+03 1.384239134854779252e+02
1.294000000000000000e+03 8.612902800829989758e+01
1.295000000000000000e+03 1.159210594616949095e+02
1.296000000000000000e+03 6.813548456431325917e+01
1.297000000000000000e+03 1.717872593361194333e+02
1.298000000000000000e+03 1.723116763485583931e+02
1.299000000000000000e+03 8.526148111801239793e+01
1.300000000000000000e+03 2.282494813277908108e+01
1.301000000000000000e+03 4.312796504146933785e+01
1.302000000000000000e+03 1.393982398340332054e+02
1.303000000000000000e+03 4.824506095238454861e+01
1.304000000000000000e+03 1.616880070539386907e+02
1.305000000000000000e+03 3.348735199585728139e+01
1.306000000000000000e+03 4.349230497925394290e-01
1.307000000000000000e+03 3.861320020747240456e+00
1.308000000000000000e+03 1.382824812670769177e+00
1.309000000000000000e+03 7.206592033196399072e+00
1.310000000000000000e+03 0.000000000000000000e+00
1.311000000000000000e+03 0.000000000000000000e+00
1.312000000000000000e+03 0.000000000000000000e+00
1.313000000000000000e+03 0.000000000000000000e+00
1.314000000000000000e+03 0.000000000000000000e+00
1.315000000000000000e+03 0.000000000000000000e+00
1.316000000000000000e+03 0.000000000000000000e+00
1.317000000000000000e+03 0.000000000000000000e+00
1.318000000000000000e+03 0.000000000000000000e+00
1.319000000000000000e+03 0.000000000000000000e+00
1.320000000000000000e+03 0.000000000000000000e+00
1.321000000000000000e+03 0.000000000000000000e+00
1.322000000000000000e+03 0.000000000000000000e+00
1.323000000000000000e+03 0.000000000000000000e+00
1.324000000000000000e+03 0.000000000000000000e+00
1.325000000000000000e+03 0.000000000000000000e+00
1.326000000000000000e+03 0.000000000000000000e+00
1.327000000000000000e+03 0.000000000000000000e+00
1.328000000000000000e+03 0.000000000000000000e+00
1.329000000000000000e+03 0.000000000000000000e+00
1.330000000000000000e+03 0.000000000000000000e+00
1.331000000000000000e+03 0.000000000000000000e+00
1.332000000000000000e+03 0.000000000000000000e+00
1.333000000000000000e+03 0.000000000000000000e+00
1.334000000000000000e+03 0.000000000000000000e+00
1.335000000000000000e+03 0.000000000000000000e+00
1.336000000000000000e+03 0.000000000000000000e+00
1.337000000000000000e+03 0.000000000000000000e+00
1.338000000000000000e+03 0.000000000000000000e+00
1.339000000000000000e+03 0.000000000000000000e+00
1.340000000000000000e+03 0.000000000000000000e+00
1.341000000000000000e+03 0.000000000000000000e+00
1.342000000000000000e+03 0.000000000000000000e+00
1.343000000000000000e+03 0.000000000000000000e+00
1.344000000000000000e+03 0.000000000000000000e+00
1.345000000000000000e+03 0.000000000000000000e+00
1.346000000000000000e+03 0.000000000000000000e+00
1.347000000000000000e+03 0.000000000000000000e+00
1.348000000000000000e+03 0.000000000000000000e+00
1.349000000000000000e+03 0.000000000000000000e+00
1.350000000000000000e+03 0.000000000000000000e+00
1.351000000000000000e+03 0.000000000000000000e+00
1.352000000000000000e+03 0.000000000000000000e+00
1.353000000000000000e+03 0.000000000000000000e+00
1.354000000000000000e+03 0.000000000000000000e+00
1.355000000000000000e+03 0.000000000000000000e+00
1.356000000000000000e+03 0.000000000000000000e+00
1.357000000000000000e+03 0.000000000000000000e+00
1.358000000000000000e+03 0.000000000000000000e+00
1.359000000000000000e+03 0.000000000000000000e+00
1.360000000000000000e+03 0.000000000000000000e+00
1.361000000000000000e+03 0.000000000000000000e+00
1.362000000000000000e+03 0.000000000000000000e+00
1.363000000000000000e+03 0.000000000000000000e+00
1.364000000000000000e+03 0.000000000000000000e+00
1.365000000000000000e+03 0.000000000000000000e+00
1.366000000000000000e+03 0.000000000000000000e+00
1.367000000000000000e+03 0.000000000000000000e+00
1.368000000000000000e+03 0.000000000000000000e+00
1.369000000000000000e+03 0.000000000000000000e+00
1.370000000000000000e+03 0.000000000000000000e+00
1.371000000000000000e+03 0.000000000000000000e+00
1.372000000000000000e+03 0.000000000000000000e+00
1.373000000000000000e+03 0.000000000000000000e+00
1.374000000000000000e+03 0.000000000000000000e+00
1.375000000000000000e+03 0.000000000000000000e+00
1.376000000000000000e+03 0.000000000000000000e+00
1.377000000000000000e+03 0.000000000000000000e+00
1.378000000000000000e+03 0.000000000000000000e+00
1.379000000000000000e+03 0.000000000000000000e+00
1.380000000000000000e+03 0.000000000000000000e+00
1.381000000000000000e+03 0.000000000000000000e+00
1.382000000000000000e+03 0.000000000000000000e+00
1.383000000000000000e+03 0.000000000000000000e+00
1.384000000000000000e+03 0.000000000000000000e+00
1.385000000000000000e+03 0.000000000000000000e+00
1.386000000000000000e+03 0.000000000000000000e+00
1.387000000000000000e+03 0.000000000000000000e+00
1.388000000000000000e+03 0.000000000000000000e+00
1.389000000000000000e+03 0.000000000000000000e+00
1.390000000000000000e+03 0.000000000000000000e+00
1.391000000000000000e+03 0.000000000000000000e+00
1.392000000000000000e+03 0.000000000000000000e+00
1.393000000000000000e+03 0.000000000000000000e+00
1.394000000000000000e+03 0.000000000000000000e+00
1.395000000000000000e+03 0.000000000000000000e+00
1.396000000000000000e+03 0.000000000000000000e+00
1.397000000000000000e+03 0.000000000000000000e+00
1.398000000000000000e+03 0.000000000000000000e+00
1.399000000000000000e+03 0.000000000000000000e+00
1.400000000000000000e+03 0.000000000000000000e+00
1.401000000000000000e+03 0.000000000000000000e+00
1.402000000000000000e+03 0.000000000000000000e+00
1.403000000000000000e+03 0.000000000000000000e+00
1.404000000000000000e+03 0.000000000000000000e+00
1.405000000000000000e+03 0.000000000000000000e+00
1.406000000000000000e+03 0.000000000000000000e+00
1.407000000000000000e+03 0.000000000000000000e+00
1.408000000000000000e+03 0.000000000000000000e+00
1.409000000000000000e+03 0.000000000000000000e+00
1.410000000000000000e+03 0.000000000000000000e+00
1.411000000000000000e+03 0.000000000000000000e+00
1.412000000000000000e+03 0.000000000000000000e+00
1.413000000000000000e+03 0.000000000000000000e+00
1.414000000000000000e+03 0.000000000000000000e+00
1.415000000000000000e+03 0.000000000000000000e+00
1.416000000000000000e+03 0.000000000000000000e+00
1.417000000000000000e+03 0.000000000000000000e+00
1.418000000000000000e+03 0.000000000000000000e+00
1.419000000000000000e+03 0.000000000000000000e+00
1.420000000000000000e+03 0.000000000000000000e+00
1.421000000000000000e+03 0.000000000000000000e+00
1.422000000000000000e+03 0.000000000000000000e+00
1.423000000000000000e+03 0.000000000000000000e+00
1.424000000000000000e+03 0.000000000000000000e+00
1.425000000000000000e+03 0.000000000000000000e+00
1.426000000000000000e+03 0.000000000000000000e+00
1.427000000000000000e+03 0.000000000000000000e+00
1.428000000000000000e+03 0.000000000000000000e+00
1.429000000000000000e+03 0.000000000000000000e+00
1.430000000000000000e+03 0.000000000000000000e+00
1.431000000000000000e+03 0.000000000000000000e+00
1.432000000000000000e+03 0.000000000000000000e+00
1.433000000000000000e+03 0.000000000000000000e+00
1.434000000000000000e+03 0.000000000000000000e+00
1.435000000000000000e+03 0.000000000000000000e+00
1.436000000000000000e+03 0.000000000000000000e+00
1.437000000000000000e+03 0.000000000000000000e+00
1.438000000000000000e+03 0.000000000000000000e+00
1.439000000000000000e+03 0.000000000000000000e+00
1.440000000000000000e+03 0.000000000000000000e+00
1.441000000000000000e+03 0.000000000000000000e+00
1.442000000000000000e+03 0.000000000000000000e+00
1.443000000000000000e+03 0.000000000000000000e+00
1.444000000000000000e+03 0.000000000000000000e+00
1.445000000000000000e+03 0.000000000000000000e+00
1.446000000000000000e+03 0.000000000000000000e+00
1.447000000000000000e+03 0.000000000000000000e+00
1.448000000000000000e+03 0.000000000000000000e+00
1.449000000000000000e+03 0.000000000000000000e+00
1.450000000000000000e+03 0.000000000000000000e+00
1.451000000000000000e+03 0.000000000000000000e+00
1.452000000000000000e+03 0.000000000000000000e+00
1.453000000000000000e+03 0.000000000000000000e+00
1.454000000000000000e+03 0.000000000000000000e+00
1.455000000000000000e+03 0.000000000000000000e+00
1.456000000000000000e+03 0.000000000000000000e+00
1.457000000000000000e+03 0.000000000000000000e+00
1.458000000000000000e+03 0.000000000000000000e+00
1.459000000000000000e+03 0.000000000000000000e+00
1.460000000000000000e+03 0.000000000000000000e+00
1.461000000000000000e+03 0.000000000000000000e+00
1.462000000000000000e+03 0.000000000000000000e+00
1.463000000000000000e+03 0.000000000000000000e+00
1.464000000000000000e+03 0.000000000000000000e+00
1.465000000000000000e+03 0.000000000000000000e+00
1.466000000000000000e+03 0.000000000000000000e+00
1.467000000000000000e+03 0.000000000000000000e+00
1.468000000000000000e+03 0.000000000000000000e+00
1.469000000000000000e+03 0.000000000000000000e+00
1.470000000000000000e+03 0.000000000000000000e+00
1.471000000000000000e+03 0.000000000000000000e+00
1.472000000000000000e+03 0.000000000000000000e+00
1.473000000000000000e+03 0.000000000000000000e+00
1.474000000000000000e+03 0.000000000000000000e+00
1.475000000000000000e+03 0.000000000000000000e+00
1.476000000000000000e+03 0.000000000000000000e+00
1.477000000000000000e+03 0.000000000000000000e+00
1.478000000000000000e+03 0.000000000000000000e+00
1.479000000000000000e+03 0.000000000000000000e+00
1.480000000000000000e+03 0.000000000000000000e+00
1.481000000000000000e+03 0.000000000000000000e+00
1.482000000000000000e+03 0.000000000000000000e+00
1.483000000000000000e+03 0.000000000000000000e+00
1.484000000000000000e+03 0.000000000000000000e+00
1.485000000000000000e+03 0.000000000000000000e+00
1.486000000000000000e+03 0.000000000000000000e+00
1.487000000000000000e+03 0.000000000000000000e+00
1.488000000000000000e+03 0.000000000000000000e+00
1.489000000000000000e+03 0.000000000000000000e+00
1.490000000000000000e+03 0.000000000000000000e+00
1.491000000000000000e+03 0.000000000000000000e+00
1.492000000000000000e+03 0.000000000000000000e+00
1.493000000000000000e+03 0.000000000000000000e+00
1.494000000000000000e+03 0.000000000000000000e+00
1.495000000000000000e+03 0.000000000000000000e+00
1.496000000000000000e+03 0.000000000000000000e+00
1.497000000000000000e+03 0.000000000000000000e+00
1.498000000000000000e+03 0.000000000000000000e+00
1.499000000000000000e+03 0.000000000000000000e+00
1.500000000000000000e+03 0.000000000000000000e+00
