1.010000000000000000e+02 0.000000000000000000e+00
1.020000000000000000e+02 0.000000000000000000e+00
1.030000000000000000e+02 0.000000000000000000e+00
1.040000000000000000e+02 0.000000000000000000e+00
1.050000000000000000e+02 0.000000000000000000e+00
1.060000000000000000e+02 0.000000000000000000e+00
1.070000000000000000e+02 0.000000000000000000e+00
1.080000000000000000e+02 0.000000000000000000e+00
1.090000000000000000e+02 0.000000000000000000e+00
1.100000000000000000e+02 0.000000000000000000e+00
1.110000000000000000e+02 0.000000000000000000e+00
1.120000000000000000e+02 0.000000000000000000e+00
1.130000000000000000e+02 0.000000000000000000e+00
1.140000000000000000e+02 0.000000000000000000e+00
1.150000000000000000e+02 0.000000000000000000e+00
1.160000000000000000e+02 0.000000000000000000e+00
1.170000000000000000e+02 0.000000000000000000e+00
1.180000000000000000e+02 0.000000000000000000e+00
1.190000000000000000e+02 0.000000000000000000e+00
1.200000000000000000e+02 0.000000000000000000e+00
1.210000000000000000e+02 0.000000000000000000e+00
1.220000000000000000e+02 0.000000000000000000e+00
1.230000000000000000e+02 0.000000000000000000e+00
1.240000000000000000e+02 9.672355471893804291e-01
1.250000000000000000e+02 1.770380869321733996e+01
1.260000000000000000e+02 5.845232064716847731e+01
1.270000000000000000e+02 9.869830740925121404e+01
1.280000000000000000e+02 1.335638578303260715e+02
1.290000000000000000e+02 1.814691048745076500e+02
1.300000000000000000e+02 2.298305930304915989e+02
1.310000000000000000e+02 2.847380131093131013e+02
1.320000000000000000e+02 3.550360423148734412e+02
1.330000000000000000e+02 4.261861327525416527e+02
1.340000000000000000e+02 5.154825894234759289e+02
1.350000000000000000e+02 6.266539748599868744e+02
1.360000000000000000e+02 7.645955772453829695e+02
1.370000000000000000e+02 9.429497476150993407e+02
1.380000000000000000e+02 1.132595397220494306e+03
1.390000000000000000e+02 1.250188059116365821e+03
1.400000000000000000e+02 1.222301567399420492e+03
1.410000000000000000e+02 1.013035488819744160e+03
1.420000000000000000e+02 7.512100878863290063e+02
1.430000000000000000e+02 5.196169198050605473e+02
1.440000000000000000e+02 3.431295360298706214e+02
1.450000000000000000e+02 2.163297967849004806e+02
1.460000000000000000e+02 1.462400230450110712e+02
1.470000000000000000e+02 1.024411391329599468e+02
1.480000000000000000e+02 7.444437500311150302e+01
1.490000000000000000e+02 4.920323563783458809e+01
1.500000000000000000e+02 2.704323169052047859e+01
1.510000000000000000e+02 1.764917278987759985e+01
1.520000000000000000e+02 8.108425962663432074e+00
1.530000000000000000e+02 3.288257631611649412e+00
1.540000000000000000e+02 3.000138182119891361e+00
1.550000000000000000e+02 6.664802843808356414e+00
1.560000000000000000e+02 1.043943192242272744e+01
1.570000000000000000e+02 1.322974429371497607e+01
1.580000000000000000e+02 1.481956026757933742e+01
1.590000000000000000e+02 6.763056186060923736e+00
1.600000000000000000e+02 1.383744347366237193e+00
1.610000000000000000e+02 7.634563370877295085e+00
1.620000000000000000e+02 2.585772130678272163e+01
1.630000000000000000e+02 4.907921644960620000e+01
1.640000000000000000e+02 7.991189974279200214e+01
1.650000000000000000e+02 1.031101905870150830e+02
1.660000000000000000e+02 1.059385047283286099e+02
1.670000000000000000e+02 8.626219741132518948e+01
1.680000000000000000e+02 5.375792288736760582e+01
1.690000000000000000e+02 2.778118487035886375e+01
1.700000000000000000e+02 1.118905193113476670e+01
1.710000000000000000e+02 1.010143485998680646e+00
1.720000000000000000e+02 4.642730975943588412e+00
1.730000000000000000e+02 2.872757816842983924e+00
1.740000000000000000e+02 6.430751004770696611e+00
1.750000000000000000e+02 2.113335938822059035e+01
1.760000000000000000e+02 3.136237176104550883e+01
1.770000000000000000e+02 4.255759216137733603e+01
1.780000000000000000e+02 6.118363567399408254e+01
1.790000000000000000e+02 8.934448906036053017e+01
1.800000000000000000e+02 1.239131806471689998e+02
1.810000000000000000e+02 1.569433278722522687e+02
1.820000000000000000e+02 1.625759320058079425e+02
1.830000000000000000e+02 1.334350660651320766e+02
1.840000000000000000e+02 8.119687764413063746e+01
1.850000000000000000e+02 3.747032336029847954e+01
1.860000000000000000e+02 1.952992843808338819e+01
1.870000000000000000e+02 1.540208634515662744e+01
1.880000000000000000e+02 1.470401264675376041e+01
1.890000000000000000e+02 1.911706021779718156e+01
1.900000000000000000e+02 2.487373080896079713e+01
1.910000000000000000e+02 3.685850552582441964e+01
1.920000000000000000e+02 5.838866060360891197e+01
1.930000000000000000e+02 8.729365036714396808e+01
1.940000000000000000e+02 1.103764401369011239e+02
1.950000000000000000e+02 1.265977223605060829e+02
1.960000000000000000e+02 1.202770004148519263e+02
1.970000000000000000e+02 8.596930043144534750e+01
1.980000000000000000e+02 5.296460200373346794e+01
1.990000000000000000e+02 3.094930488487869980e+01
2.000000000000000000e+02 1.542234931756907734e+01
2.010000000000000000e+02 4.699195670261346436e+00
2.020000000000000000e+02 1.688752183364444548e+00
2.030000000000000000e+02 2.400489957062850177e+00
2.040000000000000000e+02 1.237773748029859844e+00
2.050000000000000000e+02 1.019027538011202161e+00
2.060000000000000000e+02 4.696869146442706366e+00
2.070000000000000000e+02 1.119187341808379443e+01
2.080000000000000000e+02 1.748707062850028038e+01
2.090000000000000000e+02 2.663589195187708114e+01
2.100000000000000000e+02 3.696105619452513480e+01
2.110000000000000000e+02 3.991281339763536096e+01
2.120000000000000000e+02 5.569577666459237975e+01
2.130000000000000000e+02 6.599577278158054128e+01
2.140000000000000000e+02 7.149003254511524119e+01
2.150000000000000000e+02 8.150515124662939570e+01
2.160000000000000000e+02 9.033419905828664298e+01
2.170000000000000000e+02 1.011269555818294066e+02
2.180000000000000000e+02 1.157056244762495254e+02
2.190000000000000000e+02 1.322044076524265108e+02
2.200000000000000000e+02 1.477579860194980483e+02
2.210000000000000000e+02 1.715778972619787339e+02
2.220000000000000000e+02 2.011100707175442324e+02
2.230000000000000000e+02 2.321863401161587888e+02
2.240000000000000000e+02 2.630748320887784075e+02
2.250000000000000000e+02 2.924452009124843244e+02
2.260000000000000000e+02 3.442298197261972632e+02
2.270000000000000000e+02 4.088936277743215442e+02
2.280000000000000000e+02 4.740996256793199564e+02
2.290000000000000000e+02 5.317973091059946000e+02
2.300000000000000000e+02 5.532031650280025588e+02
2.310000000000000000e+02 5.260694769135036495e+02
2.320000000000000000e+02 4.545186759593438524e+02
2.330000000000000000e+02 3.600633973656915714e+02
2.340000000000000000e+02 2.811664635345368879e+02
2.350000000000000000e+02 2.204426557560678361e+02
2.360000000000000000e+02 1.759026104335195839e+02
2.370000000000000000e+02 1.443891062642604766e+02
2.380000000000000000e+02 1.241718562538892883e+02
2.390000000000000000e+02 1.047619295581831125e+02
2.400000000000000000e+02 8.919988519601729138e+01
2.410000000000000000e+02 7.994439481227959732e+01
2.420000000000000000e+02 7.712050850062215090e+01
2.430000000000000000e+02 7.181399408421491160e+01
2.440000000000000000e+02 7.647771739887987508e+01
2.450000000000000000e+02 7.830320372874318480e+01
2.460000000000000000e+02 7.298281790707322614e+01
2.470000000000000000e+02 7.706852462144780702e+01
2.480000000000000000e+02 8.350443130236419620e+01
2.490000000000000000e+02 9.189571475420045488e+01
2.500000000000000000e+02 1.034785470877411768e+02
2.510000000000000000e+02 1.188362107839070063e+02
2.520000000000000000e+02 1.359515998755443036e+02
2.530000000000000000e+02 1.517581309894214314e+02
2.540000000000000000e+02 1.641467667081518584e+02
2.550000000000000000e+02 1.646169959966812542e+02
2.560000000000000000e+02 1.382803058079239236e+02
2.570000000000000000e+02 1.027681151918685032e+02
2.580000000000000000e+02 7.269834681393886910e+01
2.590000000000000000e+02 5.028312348267992604e+01
2.600000000000000000e+02 3.400176347230839724e+01
2.610000000000000000e+02 2.642487099979247489e+01
2.620000000000000000e+02 1.854052205973856005e+01
2.630000000000000000e+02 8.428694869944303392e+00
2.640000000000000000e+02 1.540405614187877248e+00
2.650000000000000000e+02 5.566880967641615996e+00
2.660000000000000000e+02 1.978931792574253556e+00
2.670000000000000000e+02 1.682890390167943950e+00
2.680000000000000000e+02 5.253422957279263450e+00
2.690000000000000000e+02 9.167886389753162391e+00
2.700000000000000000e+02 8.439340250985267744e+00
2.710000000000000000e+02 1.025013852571542827e+01
2.720000000000000000e+02 1.547294793403856872e+01
2.730000000000000000e+02 1.872842474590335371e+01
2.740000000000000000e+02 1.607780096225632249e+01
2.750000000000000000e+02 1.854847530180461845e+01
2.760000000000000000e+02 1.524964412570005123e+01
2.770000000000000000e+02 9.085947842181573364e+00
2.780000000000000000e+02 6.010779475627447965e+00
2.790000000000000000e+02 7.884061129433736603e+00
2.800000000000000000e+02 1.093760770794470538e+00
2.810000000000000000e+02 1.592204158058608598e+00
2.820000000000000000e+02 2.486713018253427609e+00
2.830000000000000000e+02 7.984664806886317301e+00
2.840000000000000000e+02 1.942876120514400640e+01
2.850000000000000000e+02 2.120598578718109195e+01
2.860000000000000000e+02 2.433064143746103269e+01
2.870000000000000000e+02 2.984611299315491451e+01
2.880000000000000000e+02 3.254637101638649455e+01
2.890000000000000000e+02 4.542011723293921222e+01
2.900000000000000000e+02 5.357634068450526144e+01
2.910000000000000000e+02 7.188101538270035462e+01
2.920000000000000000e+02 9.356683701514216978e+01
2.930000000000000000e+02 8.480745978220284087e+01
2.940000000000000000e+02 1.072774824968892204e+02
2.950000000000000000e+02 1.244727619788427262e+02
2.960000000000000000e+02 1.438676141879282113e+02
2.970000000000000000e+02 1.799906715885523454e+02
2.980000000000000000e+02 2.119224068865389086e+02
2.990000000000000000e+02 2.490630121344127872e+02
3.000000000000000000e+02 2.977060698257982949e+02
3.010000000000000000e+02 3.555700577888390512e+02
3.020000000000000000e+02 4.106517669778058348e+02
3.030000000000000000e+02 4.327054992534218059e+02
3.040000000000000000e+02 4.320921190416926834e+02
3.050000000000000000e+02 4.309888764364239364e+02
3.060000000000000000e+02 4.384644718166736084e+02
3.070000000000000000e+02 4.515049718108274988e+02
3.080000000000000000e+02 4.790178044803978423e+02
3.090000000000000000e+02 5.263619131300564504e+02
3.100000000000000000e+02 5.749618507156192209e+02
3.110000000000000000e+02 6.189630853142500655e+02
3.120000000000000000e+02 6.850483515245812214e+02
3.130000000000000000e+02 7.575920777846928331e+02
3.140000000000000000e+02 8.283768827214275916e+02
3.150000000000000000e+02 9.115777004355967392e+02
3.160000000000000000e+02 1.020848521530805101e+03
3.170000000000000000e+02 1.142621653391414611e+03
3.180000000000000000e+02 1.306392881144986632e+03
3.190000000000000000e+02 1.513800492428950520e+03
3.200000000000000000e+02 1.750282858950430864e+03
3.210000000000000000e+02 1.995562921178175657e+03
3.220000000000000000e+02 2.224489476042311708e+03
3.230000000000000000e+02 2.391637800497716853e+03
3.240000000000000000e+02 2.444418924704418259e+03
3.250000000000000000e+02 2.351840082970340063e+03
3.260000000000000000e+02 2.117402403566985868e+03
3.270000000000000000e+02 1.769068118855007924e+03
3.280000000000000000e+02 1.429092277120929793e+03
3.290000000000000000e+02 1.142626809622560813e+03
3.300000000000000000e+02 9.115603631196820515e+02
3.310000000000000000e+02 7.275060164281256903e+02
3.320000000000000000e+02 5.857652576938997981e+02
3.330000000000000000e+02 4.809244793611263731e+02
3.340000000000000000e+02 4.040056410703164147e+02
3.350000000000000000e+02 3.477581530387896578e+02
3.360000000000000000e+02 3.056883014934666107e+02
3.370000000000000000e+02 2.790943695084002911e+02
3.380000000000000000e+02 2.623336889234600449e+02
3.390000000000000000e+02 2.484147159925329618e+02
3.400000000000000000e+02 2.367803659614188518e+02
3.410000000000000000e+02 2.438137163451566209e+02
3.420000000000000000e+02 2.453267990043559905e+02
3.430000000000000000e+02 2.479020485169050971e+02
3.440000000000000000e+02 2.619304079029243439e+02
3.450000000000000000e+02 2.854635477909147312e+02
3.460000000000000000e+02 2.981755662725574894e+02
3.470000000000000000e+02 3.228364671298212443e+02
3.480000000000000000e+02 3.591204266749639942e+02
3.490000000000000000e+02 4.011019212196640638e+02
3.500000000000000000e+02 4.509004589382000745e+02
3.510000000000000000e+02 5.161037091889661497e+02
3.520000000000000000e+02 5.845927485376486175e+02
3.530000000000000000e+02 6.662133680215669074e+02
3.540000000000000000e+02 7.638945841941529125e+02
3.550000000000000000e+02 8.525034345778900615e+02
3.560000000000000000e+02 9.365528111571957197e+02
3.570000000000000000e+02 9.803343008089602790e+02
3.580000000000000000e+02 9.657770945861847167e+02
3.590000000000000000e+02 9.024571640190796415e+02
3.600000000000000000e+02 8.197312773283562137e+02
3.610000000000000000e+02 7.467810473760644072e+02
3.620000000000000000e+02 6.794926149346608781e+02
3.630000000000000000e+02 6.237079322339766350e+02
3.640000000000000000e+02 5.887277559842358414e+02
3.650000000000000000e+02 5.786122236258038356e+02
3.660000000000000000e+02 5.830965432275461353e+02
3.670000000000000000e+02 5.939867553204728665e+02
3.680000000000000000e+02 5.990548967641567515e+02
3.690000000000000000e+02 5.855918468160130033e+02
3.700000000000000000e+02 5.514574638041897288e+02
3.710000000000000000e+02 5.153463208462965213e+02
3.720000000000000000e+02 4.994595988799003408e+02
3.730000000000000000e+02 5.046680490769551284e+02
3.740000000000000000e+02 5.184799720389956974e+02
3.750000000000000000e+02 5.381935556316109341e+02
3.760000000000000000e+02 5.759288435918714413e+02
3.770000000000000000e+02 6.266630272557553099e+02
3.780000000000000000e+02 6.839949462559624180e+02
3.790000000000000000e+02 7.487776210286176592e+02
3.800000000000000000e+02 8.272379201410491305e+02
3.810000000000000000e+02 9.251872120099552603e+02
3.820000000000000000e+02 1.046451252592285300e+03
3.830000000000000000e+02 1.188785383530388572e+03
3.840000000000000000e+02 1.350742842148931459e+03
3.850000000000000000e+02 1.556390605557862727e+03
3.860000000000000000e+02 1.790997571873058405e+03
3.870000000000000000e+02 2.045169706907282489e+03
3.880000000000000000e+02 2.301911788633070046e+03
3.890000000000000000e+02 2.517471818087537486e+03
3.900000000000000000e+02 2.639682775357809987e+03
3.910000000000000000e+02 2.593603937772249992e+03
3.920000000000000000e+02 2.365938358431862980e+03
3.930000000000000000e+02 2.012676589504242656e+03
3.940000000000000000e+02 1.627417206803572299e+03
3.950000000000000000e+02 1.292803062227759256e+03
3.960000000000000000e+02 1.006754616656301664e+03
3.970000000000000000e+02 7.731218604853772831e+02
3.980000000000000000e+02 5.951790559842371522e+02
3.990000000000000000e+02 4.673642492221547968e+02
4.000000000000000000e+02 3.709406244555067360e+02
4.010000000000000000e+02 2.903487678697366050e+02
4.020000000000000000e+02 2.321445315221901353e+02
4.030000000000000000e+02 1.942711778884044236e+02
4.040000000000000000e+02 1.585390140634720240e+02
4.050000000000000000e+02 1.200147692658644445e+02
4.060000000000000000e+02 9.291638276291182308e+01
4.070000000000000000e+02 7.285797176311935175e+01
4.080000000000000000e+02 5.598936663625058685e+01
4.090000000000000000e+02 4.664869630367168440e+01
4.100000000000000000e+02 3.568238561086880622e+01
4.110000000000000000e+02 2.009006848195776129e+01
4.120000000000000000e+02 1.234527896909357025e+01
4.130000000000000000e+02 1.363610778469197449e+01
4.140000000000000000e+02 1.037830773952718388e+01
4.150000000000000000e+02 4.923969443269054835e+00
4.160000000000000000e+02 3.981573588467120839e+00
4.170000000000000000e+02 1.640577389130887687e+00
4.180000000000000000e+02 2.985591885500934239e+00
4.190000000000000000e+02 1.021044932171752517e+00
4.200000000000000000e+02 7.304331887990141325e+00
4.210000000000000000e+02 4.482059552167530825e+00
4.220000000000000000e+02 3.625519685127591707e+00
4.230000000000000000e+02 8.363483769135038770e+00
4.240000000000000000e+02 6.237476390582832764e+00
4.250000000000000000e+02 7.086380553619591183e+00
4.260000000000000000e+02 5.373293297656168477e+00
4.270000000000000000e+02 1.855204485376389378e+00
4.280000000000000000e+02 7.006358998340874722e-01
4.290000000000000000e+02 1.019347362756387460e-01
4.300000000000000000e+02 2.377806965152386987e+00
4.310000000000000000e+02 6.219592092907451075e+00
4.320000000000000000e+02 4.659536779091539849e+00
4.330000000000000000e+02 2.479206695083918000e+00
4.340000000000000000e+02 8.536545619037736898e+00
4.350000000000000000e+02 5.204376652146855520e+00
4.360000000000000000e+02 5.316348227131286741e+00
4.370000000000000000e+02 8.112410927830794094e+00
4.380000000000000000e+02 9.528784661895874919e+00
4.390000000000000000e+02 8.629440876166764696e+00
4.400000000000000000e+02 6.978108508400749699e+00
4.410000000000000000e+02 4.020320771001808957e+00
4.420000000000000000e+02 1.808071212404055439e+00
4.430000000000000000e+02 2.519494556822907683e+00
4.440000000000000000e+02 5.150080741132512685e+00
4.450000000000000000e+02 2.833037116988103232e+00
4.460000000000000000e+02 1.057836397760286040e+00
4.470000000000000000e+02 6.437108708981415184e+00
4.480000000000000000e+02 7.347429380626626205e+00
4.490000000000000000e+02 3.961147767938630881e+00
4.500000000000000000e+02 1.093682165214679358e+01
4.510000000000000000e+02 8.963445239576930845e+00
4.520000000000000000e+02 7.853196583160510613e+00
4.530000000000000000e+02 1.278524840033185228e+01
4.540000000000000000e+02 2.174368229620402460e+01
4.550000000000000000e+02 2.921083328562543713e+01
4.560000000000000000e+02 3.329361367351173584e+01
4.570000000000000000e+02 3.696656810205351462e+01
4.580000000000000000e+02 3.641853501970535945e+01
4.590000000000000000e+02 3.526510856253898396e+01
4.600000000000000000e+02 4.336658151006020745e+01
4.610000000000000000e+02 4.979814709811239481e+01
4.620000000000000000e+02 6.297773236258070995e+01
4.630000000000000000e+02 6.945619813939015330e+01
4.640000000000000000e+02 6.515801896701941587e+01
4.650000000000000000e+02 5.983464551337907267e+01
4.660000000000000000e+02 5.932618048745074191e+01
4.670000000000000000e+02 6.079543946484130146e+01
4.680000000000000000e+02 5.292378596764181253e+01
4.690000000000000000e+02 4.329967889257564195e+01
4.700000000000000000e+02 4.213360642812698131e+01
4.710000000000000000e+02 2.855057178593660439e+01
4.720000000000000000e+02 2.502475214019079530e+01
4.730000000000000000e+02 2.315854110765399554e+01
4.740000000000000000e+02 2.117798759593445368e+01
4.750000000000000000e+02 2.205197579427624888e+01
4.760000000000000000e+02 2.383805443891308329e+01
4.770000000000000000e+02 2.038308566894830420e+01
4.780000000000000000e+02 1.387293423683104265e+01
4.790000000000000000e+02 1.214690311968476344e+01
4.800000000000000000e+02 1.758855983198518658e+01
4.810000000000000000e+02 2.282943013687261669e+01
4.820000000000000000e+02 1.162257130678287886e+01
4.830000000000000000e+02 1.670207445550740033e+01
4.840000000000000000e+02 1.923673241651117394e+01
4.850000000000000000e+02 1.481276021157432510e+01
4.860000000000000000e+02 1.712114016179211262e+01
4.870000000000000000e+02 1.859597759178593535e+01
4.880000000000000000e+02 1.735075301182328644e+01
4.890000000000000000e+02 1.909151207633263425e+01
4.900000000000000000e+02 1.944475269861021260e+01
4.910000000000000000e+02 1.482293561294337181e+01
4.920000000000000000e+02 1.754703630781994050e+01
4.930000000000000000e+02 1.951424568761670031e+01
4.940000000000000000e+02 2.441321251400130521e+01
4.950000000000000000e+02 2.424920225886743808e+01
4.960000000000000000e+02 1.800929152458001070e+01
4.970000000000000000e+02 2.024010583903750060e+01
4.980000000000000000e+02 1.719868473247614205e+01
4.990000000000000000e+02 2.023804764364222919e+01
5.000000000000000000e+02 2.757063691350361978e+01
5.010000000000000000e+02 3.039337678556610811e+01
5.020000000000000000e+02 2.639012814146440533e+01
5.030000000000000000e+02 3.384851696328543369e+01
5.040000000000000000e+02 3.989444402322682492e+01
5.050000000000000000e+02 4.753334713130048783e+01
5.060000000000000000e+02 5.555531271935274873e+01
5.070000000000000000e+02 6.025214487971798150e+01
5.080000000000000000e+02 6.420180149968886951e+01
5.090000000000000000e+02 7.817974490976972390e+01
5.100000000000000000e+02 8.337210643434971757e+01
5.110000000000000000e+02 8.373262011615850042e+01
5.120000000000000000e+02 8.921591864343503175e+01
5.130000000000000000e+02 1.010415892014103463e+02
5.140000000000000000e+02 1.093724041070316417e+02
5.150000000000000000e+02 1.150235151835718170e+02
5.160000000000000000e+02 1.095216275046669949e+02
5.170000000000000000e+02 1.022743409873470313e+02
5.180000000000000000e+02 1.048745078406969498e+02
5.190000000000000000e+02 9.986403544492827677e+01
5.200000000000000000e+02 9.383964771831556106e+01
5.210000000000000000e+02 9.903054827214300815e+01
5.220000000000000000e+02 1.069249763327113243e+02
5.230000000000000000e+02 1.128923088363417548e+02
5.240000000000000000e+02 1.302455510783910597e+02
5.250000000000000000e+02 1.372938589296821306e+02
5.260000000000000000e+02 1.557133669155785185e+02
5.270000000000000000e+02 1.663265271671504308e+02
5.280000000000000000e+02 1.676041133789667867e+02
5.290000000000000000e+02 1.768252288321924368e+02
5.300000000000000000e+02 1.731872819784322530e+02
5.310000000000000000e+02 1.649799172993155025e+02
5.320000000000000000e+02 1.525259699439950509e+02
5.330000000000000000e+02 1.339576961841555658e+02
5.340000000000000000e+02 1.134076718523124185e+02
5.350000000000000000e+02 1.028237260319433517e+02
5.360000000000000000e+02 8.508519822858259829e+01
5.370000000000000000e+02 6.951870084629712210e+01
5.380000000000000000e+02 6.371871400954163533e+01
5.390000000000000000e+02 6.367700028417323210e+01
5.400000000000000000e+02 6.028144257830328456e+01
5.410000000000000000e+02 6.280770913503420871e+01
5.420000000000000000e+02 5.686560470441836657e+01
5.430000000000000000e+02 6.228015246629365720e+01
5.440000000000000000e+02 7.073068890479153481e+01
5.450000000000000000e+02 6.936105070939639461e+01
5.460000000000000000e+02 7.159100904791534958e+01
5.470000000000000000e+02 7.597752554241854739e+01
5.480000000000000000e+02 7.247748819746929883e+01
5.490000000000000000e+02 8.401853855216792510e+01
5.500000000000000000e+02 1.040325208212359627e+02
5.510000000000000000e+02 1.054994619166152034e+02
5.520000000000000000e+02 1.272684593860197850e+02
5.530000000000000000e+02 1.502260087930321220e+02
5.540000000000000000e+02 1.639048356150177881e+02
5.550000000000000000e+02 1.834986198506536539e+02
5.560000000000000000e+02 2.169028657403570435e+02
5.570000000000000000e+02 2.437620690728067530e+02
5.580000000000000000e+02 2.589940113461937585e+02
5.590000000000000000e+02 2.735485557445045401e+02
5.600000000000000000e+02 2.617541382078410948e+02
5.610000000000000000e+02 2.244260906865795562e+02
5.620000000000000000e+02 1.849566612608870741e+02
5.630000000000000000e+02 1.524869462352206995e+02
5.640000000000000000e+02 1.161666102053513612e+02
5.650000000000000000e+02 8.886040015556915250e+01
5.660000000000000000e+02 6.820493884878652580e+01
5.670000000000000000e+02 5.283649818087538819e+01
5.680000000000000000e+02 4.775606847334573501e+01
5.690000000000000000e+02 4.046973190416927935e+01
5.700000000000000000e+02 3.279033041900029133e+01
5.710000000000000000e+02 2.966974090645094364e+01
5.720000000000000000e+02 2.893947584111181115e+01
5.730000000000000000e+02 2.551642391412578803e+01
5.740000000000000000e+02 1.868895661481020909e+01
5.750000000000000000e+02 1.775080569383945672e+01
5.760000000000000000e+02 1.278510599460707553e+01
5.770000000000000000e+02 5.411897768720167257e+00
5.780000000000000000e+02 5.267443245177375388e+00
5.790000000000000000e+02 1.601627236416436162e+01
5.800000000000000000e+02 5.206974388923542918e+00
5.810000000000000000e+02 4.425909514623430074e-01
5.820000000000000000e+02 3.274960831605007616e+00
5.830000000000000000e+02 1.088877084069686241e+01
5.840000000000000000e+02 1.357381036506956917e+01
5.850000000000000000e+02 9.310913380340128498e+00
5.860000000000000000e+02 1.301215613358220224e+01
5.870000000000000000e+02 2.865241293715259818e+00
5.880000000000000000e+02 3.262715623314957014e+00
5.890000000000000000e+02 4.302399657539624833e+00
5.900000000000000000e+02 6.957435978842723578e+00
5.910000000000000000e+02 1.992904039825775353e+00
5.920000000000000000e+02 3.510758732890844502e+00
5.930000000000000000e+02 6.370560904998956886e+00
5.940000000000000000e+02 3.312797138145669784e+00
5.950000000000000000e+02 1.850825165491498225e+00
5.960000000000000000e+02 3.425953806471783381e+00
5.970000000000000000e+02 9.305075637419648160e+00
5.980000000000000000e+02 2.242986822065951902e+00
5.990000000000000000e+02 2.236651072599080692e+00
6.000000000000000000e+02 8.863914436837745381e-01
6.010000000000000000e+02 2.673334279966661065e+00
6.020000000000000000e+02 5.866377476042222483e+00
6.030000000000000000e+02 4.629711952292178800e+00
6.040000000000000000e+02 8.542958796929104315e-01
6.050000000000000000e+02 1.379849746110876296e+00
6.060000000000000000e+02 3.244269866417531567e+00
6.070000000000000000e+02 4.673242095415978348e+00
6.080000000000000000e+02 2.419208430201205129e+00
6.090000000000000000e+02 8.437943553204375613e-01
6.100000000000000000e+02 3.005851996888681654e+00
6.110000000000000000e+02 6.441156044389136248e+00
6.120000000000000000e+02 6.345802781165733819e+00
6.130000000000000000e+02 2.787046150798351274e+00
6.140000000000000000e+02 5.999071738643532825e+00
6.150000000000000000e+02 7.140739315495149953e+00
6.160000000000000000e+02 8.748773919311098268e+00
6.170000000000000000e+02 5.694443822858262116e+00
6.180000000000000000e+02 4.799750681874757952e+00
6.190000000000000000e+02 6.675719361543028363e+00
6.200000000000000000e+02 1.216248749429566089e+01
6.210000000000000000e+02 1.420009558274581885e+01
6.220000000000000000e+02 1.722459687201818568e+01
6.230000000000000000e+02 1.963489835718728216e+01
6.240000000000000000e+02 2.230864034010780017e+01
6.250000000000000000e+02 2.510603129641152975e+01
6.260000000000000000e+02 2.131421665422111289e+01
6.270000000000000000e+02 2.748317731024488353e+01
6.280000000000000000e+02 3.405427426882403097e+01
6.290000000000000000e+02 4.110501340385830815e+01
6.300000000000000000e+02 4.439122042306095040e+01
6.310000000000000000e+02 4.279283261149182493e+01
6.320000000000000000e+02 5.427400065961430187e+01
6.330000000000000000e+02 5.519327702551336046e+01
6.340000000000000000e+02 5.726194845260334887e+01
6.350000000000000000e+02 6.171737549263649214e+01
6.360000000000000000e+02 7.042920939431613192e+01
6.370000000000000000e+02 8.395480616677016883e+01
6.380000000000000000e+02 8.879774690313230678e+01
6.390000000000000000e+02 1.062151768346815430e+02
6.400000000000000000e+02 1.300945954366313231e+02
6.410000000000000000e+02 1.441509507778469015e+02
6.420000000000000000e+02 1.532274869321719848e+02
6.430000000000000000e+02 1.754107361335827022e+02
6.440000000000000000e+02 2.129904582953134877e+02
6.450000000000000000e+02 2.366917897739065211e+02
6.460000000000000000e+02 2.666793392034854264e+02
6.470000000000000000e+02 3.050943695147247468e+02
6.480000000000000000e+02 3.539348484131937767e+02
6.490000000000000000e+02 4.222900600497832784e+02
6.500000000000000000e+02 5.048742836789726880e+02
6.510000000000000000e+02 5.774634077162428412e+02
6.520000000000000000e+02 6.447817687616684452e+02
6.530000000000000000e+02 7.323163314392386383e+02
6.540000000000000000e+02 8.376711589296816101e+02
6.550000000000000000e+02 9.431869357187312062e+02
6.560000000000000000e+02 1.063351601617588585e+03
6.570000000000000000e+02 1.200435904791538860e+03
6.580000000000000000e+02 1.366163505704211047e+03
6.590000000000000000e+02 1.553492901887578682e+03
6.600000000000000000e+02 1.764770519601744127e+03
6.610000000000000000e+02 2.010318323376892295e+03
6.620000000000000000e+02 2.285176688653810288e+03
6.630000000000000000e+02 2.553797789462767923e+03
6.640000000000000000e+02 2.771555665836962362e+03
6.650000000000000000e+02 2.915868825140013541e+03
6.660000000000000000e+02 2.961931999999999789e+03
6.670000000000000000e+02 2.875738543455716353e+03
6.680000000000000000e+02 2.633635864343495541e+03
6.690000000000000000e+02 2.300484029869322967e+03
6.700000000000000000e+02 1.957122304293719708e+03
6.710000000000000000e+02 1.624529533914125068e+03
6.720000000000000000e+02 1.321539457581413444e+03
6.730000000000000000e+02 1.075360525528828930e+03
6.740000000000000000e+02 8.806430688238958737e+02
6.750000000000000000e+02 7.266956920555917350e+02
6.760000000000000000e+02 5.946729595188731992e+02
6.770000000000000000e+02 5.044191987347027180e+02
6.780000000000000000e+02 4.312878446173007205e+02
6.790000000000000000e+02 3.554251266486940608e+02
6.800000000000000000e+02 3.094654656087952844e+02
6.810000000000000000e+02 2.646801088778270241e+02
6.820000000000000000e+02 2.283439050601412816e+02
6.830000000000000000e+02 2.023446403235846560e+02
6.840000000000000000e+02 1.798640438705668032e+02
6.850000000000000000e+02 1.575118161584733514e+02
6.860000000000000000e+02 1.389575250362995291e+02
6.870000000000000000e+02 1.169979121966397315e+02
6.880000000000000000e+02 1.135456143123833357e+02
6.890000000000000000e+02 1.082193077369837937e+02
6.900000000000000000e+02 9.218802996473718281e+01
6.910000000000000000e+02 7.718221077992126311e+01
6.920000000000000000e+02 7.692829173615427862e+01
6.930000000000000000e+02 7.799492060775774860e+01
6.940000000000000000e+02 6.999565709396409829e+01
6.950000000000000000e+02 6.915993363410071026e+01
6.960000000000000000e+02 6.632142590541411664e+01
6.970000000000000000e+02 5.748621299315516353e+01
6.980000000000000000e+02 5.150278555278981685e+01
6.990000000000000000e+02 5.435215817503104319e+01
7.000000000000000000e+02 5.622615744036504992e+01
7.010000000000000000e+02 5.998988591163655570e+01
7.020000000000000000e+02 6.295032541061799947e+01
7.030000000000000000e+02 6.506512822028629728e+01
7.040000000000000000e+02 6.916528883841534991e+01
7.050000000000000000e+02 7.292362367897142406e+01
7.060000000000000000e+02 6.229974113876753705e+01
7.070000000000000000e+02 6.316144804190017936e+01
7.080000000000000000e+02 5.294444029448437306e+01
7.090000000000000000e+02 4.686698352001642576e+01
7.100000000000000000e+02 5.178812059116370392e+01
7.110000000000000000e+02 4.070567884878705200e+01
7.120000000000000000e+02 2.787440413399712824e+01
7.130000000000000000e+02 3.062077361128384467e+01
7.140000000000000000e+02 2.895491126944625293e+01
7.150000000000000000e+02 2.288075891723716282e+01
7.160000000000000000e+02 1.585871424185869749e+01
7.170000000000000000e+02 1.004378986932173845e+01
7.180000000000000000e+02 1.756245468367565365e+01
7.190000000000000000e+02 2.393836163036715803e+01
7.200000000000000000e+02 1.453880551960127221e+01
7.210000000000000000e+02 9.602389552167659659e+00
7.220000000000000000e+02 9.984966260941629201e+00
7.230000000000000000e+02 8.319272684297830622e+00
7.240000000000000000e+02 1.358260250777869160e+01
7.250000000000000000e+02 1.339985770634574003e+01
7.260000000000000000e+02 7.986693375233749670e+00
7.270000000000000000e+02 4.521848180667387140e+00
7.280000000000000000e+02 7.404276452094032734e+00
7.290000000000000000e+02 1.045177592408162548e+00
7.300000000000000000e+02 2.921734719560195259e+00
7.310000000000000000e+02 5.782566977810023268e+00
7.320000000000000000e+02 4.062161692802318314e+00
7.330000000000000000e+02 4.235357596764157684e+00
7.340000000000000000e+02 1.932802193280719560e+00
7.350000000000000000e+02 1.403157803982494567e+00
7.360000000000000000e+02 9.496440176312095360e+00
7.370000000000000000e+02 9.308840702612998896e+00
7.380000000000000000e+02 1.163772572184172560e+01
7.390000000000000000e+02 4.509167049159697349e+00
7.400000000000000000e+02 2.555965343289653191e+00
7.410000000000000000e+02 4.144949683468142076e+00
7.420000000000000000e+02 2.121864084007387241e+00
7.430000000000000000e+02 6.580440730553615225e+00
7.440000000000000000e+02 1.136242177971388401e+01
7.450000000000000000e+02 3.476286238332133571e+00
7.460000000000000000e+02 3.876050001452000959e+00
7.470000000000000000e+02 5.074769464841289768e+00
7.480000000000000000e+02 1.152947853868487549e+01
7.490000000000000000e+02 1.144225862684078621e+01
7.500000000000000000e+02 3.107969521676036351e+00
7.510000000000000000e+02 5.576439894212033010e-01
7.520000000000000000e+02 1.085915141257012273e+01
7.530000000000000000e+02 7.462322909354672795e+00
7.540000000000000000e+02 5.075435530900203496e+00
7.550000000000000000e+02 7.354804688653539202e+00
7.560000000000000000e+02 1.010481041692660176e+00
7.570000000000000000e+02 6.700445520116252496e+00
7.580000000000000000e+02 1.052695973449492861e+01
7.590000000000000000e+02 3.319579631818967869e+00
7.600000000000000000e+02 1.705876751140716463e+00
7.610000000000000000e+02 5.594377132545089282e+00
7.620000000000000000e+02 1.190951229682625012e+01
7.630000000000000000e+02 2.283995600995451269e+01
7.640000000000000000e+02 1.543416824517725416e+01
7.650000000000000000e+02 1.744971390790295729e+01
7.660000000000000000e+02 2.174586334163042167e+01
7.670000000000000000e+02 2.092300012860395952e+01
7.680000000000000000e+02 1.804161256170919359e+01
7.690000000000000000e+02 1.988600330636804969e+01
7.700000000000000000e+02 2.397451885500937152e+01
7.710000000000000000e+02 2.536479958307404914e+01
7.720000000000000000e+02 1.048841545550689069e+01
7.730000000000000000e+02 9.563906109935755850e+00
7.740000000000000000e+02 1.669498543248287348e+01
7.750000000000000000e+02 1.943371757934041355e+01
7.760000000000000000e+02 2.256894736361751441e+01
7.770000000000000000e+02 2.701615713959758125e+01
7.780000000000000000e+02 2.017322556938390576e+01
7.790000000000000000e+02 2.605802113254514651e+01
7.800000000000000000e+02 3.026255661551223852e+01
7.810000000000000000e+02 3.206413817465257665e+01
7.820000000000000000e+02 3.329014635760220386e+01
7.830000000000000000e+02 2.717992641020325451e+01
7.840000000000000000e+02 2.657700531425015456e+01
7.850000000000000000e+02 2.947165536818087261e+01
7.860000000000000000e+02 2.435660404687840597e+01
7.870000000000000000e+02 2.097838917859365182e+01
7.880000000000000000e+02 1.895570573739894371e+01
7.890000000000000000e+02 1.494014795063271173e+01
7.900000000000000000e+02 1.322704620410709886e+01
7.910000000000000000e+02 9.960390145613024160e+00
7.920000000000000000e+02 9.494575146235266772e-01
7.930000000000000000e+02 6.783169967855369187e+00
7.940000000000000000e+02 1.207242819124664379e+01
7.950000000000000000e+02 1.167638956025718322e+01
7.960000000000000000e+02 1.620968087930319967e+01
7.970000000000000000e+02 1.651023443683879677e+01
7.980000000000000000e+02 1.274893409666033506e+01
7.990000000000000000e+02 1.998732004770037651e+00
8.000000000000000000e+02 4.715027820991171126e+00
8.010000000000000000e+02 4.436033008089554031e+00
8.020000000000000000e+02 7.151813839900698966e+00
8.030000000000000000e+02 8.745572036506423785e+00
8.040000000000000000e+02 1.753298772868680189e+01
8.050000000000000000e+02 7.673281157611278047e+00
8.060000000000000000e+02 1.708752690105690863e+00
8.070000000000000000e+02 1.355399751296387567e+00
8.080000000000000000e+02 6.458286468367477440e+00
8.090000000000000000e+02 1.190154794026135932e+01
8.100000000000000000e+02 1.222199650902298274e+01
8.110000000000000000e+02 1.286448176726810999e+01
8.120000000000000000e+02 2.469241961626140736e+00
8.130000000000000000e+02 1.718853393071971158e+00
8.140000000000000000e+02 2.570331523750474467e+00
8.150000000000000000e+02 2.376967109520764510e+00
8.160000000000000000e+02 1.960403562123821164e+00
8.170000000000000000e+02 7.808238360505836084e+00
8.180000000000000000e+02 7.220720914955266245e+00
8.190000000000000000e+02 1.525338034011830546e-01
8.200000000000000000e+02 2.548124225263254106e-01
8.210000000000000000e+02 6.227982359053931383e+00
8.220000000000000000e+02 8.222393321028738100e+00
8.230000000000000000e+02 3.116960815805834617e+00
8.240000000000000000e+02 5.718632793403950032e+00
8.250000000000000000e+02 3.250899700539129356e+00
8.260000000000000000e+02 1.041650136403238314e+01
8.270000000000000000e+02 1.125120997510889431e+01
8.280000000000000000e+02 8.626819054126848130e+00
8.290000000000000000e+02 4.544565722464078306e+00
8.300000000000000000e+02 7.800105878656115266e+00
8.310000000000000000e+02 1.675986220240586633e+01
8.320000000000000000e+02 1.513076759178584041e+01
8.330000000000000000e+02 1.542897558182969320e+01
8.340000000000000000e+02 2.087928859987539454e+01
8.350000000000000000e+02 2.177749868699456570e+01
8.360000000000000000e+02 1.199500228790662248e+01
8.370000000000000000e+02 1.990440932793940831e+01
8.380000000000000000e+02 4.151555586807730691e+01
8.390000000000000000e+02 3.532655630781972889e+01
8.400000000000000000e+02 5.294246742791951021e+01
8.410000000000000000e+02 5.579387881144990757e+01
8.420000000000000000e+02 6.960044822028618228e+01
8.430000000000000000e+02 8.241786042937165746e+01
8.440000000000000000e+02 9.111201261356583814e+01
8.450000000000000000e+02 1.040851679796725477e+02
8.460000000000000000e+02 1.227600161584740874e+02
8.470000000000000000e+02 1.399869228998135497e+02
8.480000000000000000e+02 1.492277579012863100e+02
8.490000000000000000e+02 1.828079956233160885e+02
8.500000000000000000e+02 2.189647949595527621e+02
8.510000000000000000e+02 2.435985049771882984e+02
8.520000000000000000e+02 2.717134691972607357e+02
8.530000000000000000e+02 3.138210274839252634e+02
8.540000000000000000e+02 3.405371109083373540e+02
8.550000000000000000e+02 3.510500191039203628e+02
8.560000000000000000e+02 3.312211536403237915e+02
8.570000000000000000e+02 3.022934353587720011e+02
8.580000000000000000e+02 2.576604575191861386e+02
8.590000000000000000e+02 2.126635190209495363e+02
8.600000000000000000e+02 1.813013202862464652e+02
8.610000000000000000e+02 1.445635158680766779e+02
8.620000000000000000e+02 1.250011921593029030e+02
8.630000000000000000e+02 1.135948442646750891e+02
8.640000000000000000e+02 1.016822258660026534e+02
8.650000000000000000e+02 7.984085797137504414e+01
8.660000000000000000e+02 5.732635551960138542e+01
8.670000000000000000e+02 5.566172262393715897e+01
8.680000000000000000e+02 6.870823675171125444e+01
8.690000000000000000e+02 5.324064165940700377e+01
8.700000000000000000e+02 3.710399373366512066e+01
8.710000000000000000e+02 3.881651152250569226e+01
8.720000000000000000e+02 3.155570568139378906e+01
8.730000000000000000e+02 2.392491261563990435e+01
8.740000000000000000e+02 2.376579960597262442e+01
8.750000000000000000e+02 2.481550082762916531e+01
8.760000000000000000e+02 2.571886984443061408e+01
8.770000000000000000e+02 1.474886498548321079e+01
8.780000000000000000e+02 1.551242394938812730e+01
8.790000000000000000e+02 2.271273239576849079e+01
8.800000000000000000e+02 1.733820584404810816e+01
8.810000000000000000e+02 1.135889834059324421e+01
8.820000000000000000e+02 1.202097163244143907e+01
8.830000000000000000e+02 1.055774950394028266e+01
8.840000000000000000e+02 2.361684398879899405e+01
8.850000000000000000e+02 4.579732409251439762e+00
8.860000000000000000e+02 1.371227821173793870e+01
8.870000000000000000e+02 1.756318151628292767e+01
8.880000000000000000e+02 1.698492985687616397e+01
8.890000000000000000e+02 1.978648590541381580e+01
8.900000000000000000e+02 2.230438127774318602e+01
8.910000000000000000e+02 2.664444572287926860e+01
8.920000000000000000e+02 3.629946937564819365e+01
8.930000000000000000e+02 3.164554082762922249e+01
8.940000000000000000e+02 3.013104393901677014e+01
8.950000000000000000e+02 2.570381967849000304e+01
8.960000000000000000e+02 2.228904661895871087e+01
8.970000000000000000e+02 2.897391623522060655e+01
8.980000000000000000e+02 4.093128999999988338e+01
8.990000000000000000e+02 4.491455167807506399e+01
9.000000000000000000e+02 3.838885942762330927e+01
9.010000000000000000e+02 4.428634539514620627e+01
9.020000000000000000e+02 4.852762331673927321e+01
9.030000000000000000e+02 4.034910471588589331e+01
9.040000000000000000e+02 3.845206112217410066e+01
9.050000000000000000e+02 4.623827548433927603e+01
9.060000000000000000e+02 3.777077240978878336e+01
9.070000000000000000e+02 3.042859307405101177e+01
9.080000000000000000e+02 3.935358588881939568e+01
9.090000000000000000e+02 4.377706727084197524e+01
9.100000000000000000e+02 3.322274970545577588e+01
9.110000000000000000e+02 3.347493370877371888e+01
9.120000000000000000e+02 4.607059688510960882e+01
9.130000000000000000e+02 4.862982381041293678e+01
9.140000000000000000e+02 4.003242646546266315e+01
9.150000000000000000e+02 6.180720093341640364e+01
9.160000000000000000e+02 4.321954688861248428e+01
9.170000000000000000e+02 3.967521735532041305e+01
9.180000000000000000e+02 4.440965357602160424e+01
9.190000000000000000e+02 4.114546520431436250e+01
9.200000000000000000e+02 3.858503321095215455e+01
9.210000000000000000e+02 4.058886485376449826e+01
9.220000000000000000e+02 3.325479593652766397e+01
9.230000000000000000e+02 4.259895265297665645e+01
9.240000000000000000e+02 2.903416142501624364e+01
9.250000000000000000e+02 2.245785544492854058e+01
9.260000000000000000e+02 1.454857447624920042e+01
9.270000000000000000e+02 2.123547182534679578e+01
9.280000000000000000e+02 2.591810579340477005e+01
9.290000000000000000e+02 1.063649785566145844e+01
9.300000000000000000e+02 1.292992265090235549e+01
9.310000000000000000e+02 1.130205744409854240e+01
9.320000000000000000e+02 2.545164165284106517e+01
9.330000000000000000e+02 9.811532410703080131e+00
9.340000000000000000e+02 6.800371843186095333e+00
9.350000000000000000e+02 1.158369650767312997e+01
9.360000000000000000e+02 8.926650002074190127e+00
9.370000000000000000e+02 6.012650517527408311e+00
9.380000000000000000e+02 2.613850558274416258e+00
9.390000000000000000e+02 8.647588133167867230e-01
9.400000000000000000e+02 5.371692806633404649e-02
9.410000000000000000e+02 3.347575815598344828e+00
9.420000000000000000e+02 2.987091743206919947e+00
9.430000000000000000e+02 9.645004001244348313e-01
9.440000000000000000e+02 3.219195706907136856e+00
9.450000000000000000e+02 7.935551833851873127e+00
9.460000000000000000e+02 8.303191811657322674e+00
9.470000000000000000e+02 7.421223146442653018e+00
9.480000000000000000e+02 9.463126004978341665e-01
9.490000000000000000e+02 3.414765507156166890e+00
9.500000000000000000e+02 3.702002345363982094e+00
9.510000000000000000e+02 5.922144268409168077e+00
9.520000000000000000e+02 5.003652235843075502e+00
9.530000000000000000e+02 6.979675056005545386e+00
9.540000000000000000e+02 1.902612138560438382e+01
9.550000000000000000e+02 1.383101976980556636e+01
9.560000000000000000e+02 3.148366253889224708e+01
9.570000000000000000e+02 1.567819170503975101e+01
9.580000000000000000e+02 1.987198944836084058e+00
9.590000000000000000e+02 7.932937490976514461e+00
9.600000000000000000e+02 1.991961269238770171e+01
9.610000000000000000e+02 2.132742792824531008e+01
9.620000000000000000e+02 1.773728520846293577e+01
9.630000000000000000e+02 2.741134110143113745e+01
9.640000000000000000e+02 3.570020063044384528e+01
9.650000000000000000e+02 3.545737303878860303e+01
9.660000000000000000e+02 2.796741276291215428e+01
9.670000000000000000e+02 4.030675917876474301e+01
9.680000000000000000e+02 4.761221543040837645e+01
9.690000000000000000e+02 3.717591702758745953e+01
9.700000000000000000e+02 3.943513822236169375e+01
9.710000000000000000e+02 6.293780846297421050e+01
9.720000000000000000e+02 4.072946754615212228e+01
9.730000000000000000e+02 4.341245550300792644e+01
9.740000000000000000e+02 4.772708304293717418e+01
9.750000000000000000e+02 4.678732992532668788e+01
9.760000000000000000e+02 5.784624877411292232e+01
9.770000000000000000e+02 6.767801695084008884e+01
9.780000000000000000e+02 6.767257147064925960e+01
9.790000000000000000e+02 7.660755131715418997e+01
9.800000000000000000e+02 8.664960301182333069e+01
9.810000000000000000e+02 1.028329817088345237e+02
9.820000000000000000e+02 1.151382977800832066e+02
9.830000000000000000e+02 1.214068393071976573e+02
9.840000000000000000e+02 1.089859342252645291e+02
9.850000000000000000e+02 1.091677409666041427e+02
9.860000000000000000e+02 1.300352524579963074e+02
9.870000000000000000e+02 1.394939231072391692e+02
9.880000000000000000e+02 1.423001454262598884e+02
9.890000000000000000e+02 1.624710129433726991e+02
9.900000000000000000e+02 1.768545837585561742e+02
9.910000000000000000e+02 1.909702180875333397e+02
9.920000000000000000e+02 2.262083069487655678e+02
9.930000000000000000e+02 2.710462802738014716e+02
9.940000000000000000e+02 3.095390412691820643e+02
9.950000000000000000e+02 3.542220136901057117e+02
9.960000000000000000e+02 4.268527379589294810e+02
9.970000000000000000e+02 5.086302439236810642e+02
9.980000000000000000e+02 6.026940317983805926e+02
9.990000000000000000e+02 7.256550832814791647e+02
1.000000000000000000e+03 8.332704634004537638e+02
1.001000000000000000e+03 9.696910995850646486e+02
1.002000000000000000e+03 1.137787435684640741e+03
1.003000000000000000e+03 1.307325887966808523e+03
1.004000000000000000e+03 1.487641211618251191e+03
1.005000000000000000e+03 1.702974603734430957e+03
1.006000000000000000e+03 1.944712132780082811e+03
1.007000000000000000e+03 2.271733244813260626e+03
1.008000000000000000e+03 2.637695558091289058e+03
1.009000000000000000e+03 3.070167414937748617e+03
1.010000000000000000e+03 3.529880377593367939e+03
1.011000000000000000e+03 3.946654033195015018e+03
1.012000000000000000e+03 4.245765867219917709e+03
1.013000000000000000e+03 4.313222714285714574e+03
1.014000000000000000e+03 4.046751462655618525e+03
1.015000000000000000e+03 3.496081831950194101e+03
1.016000000000000000e+03 2.847600738589232151e+03
1.017000000000000000e+03 2.228901285714306596e+03
1.018000000000000000e+03 1.678963282157676758e+03
1.019000000000000000e+03 1.282433037344410650e+03
1.020000000000000000e+03 1.005482484647301362e+03
1.021000000000000000e+03 7.943213587991796203e+02
1.022000000000000000e+03 6.428168769709510570e+02
1.023000000000000000e+03 5.302749246887985919e+02
1.024000000000000000e+03 4.299336672199158897e+02
1.025000000000000000e+03 3.821715343685301036e+02
1.026000000000000000e+03 3.428212746887932099e+02
1.027000000000000000e+03 2.861668273858975340e+02
1.028000000000000000e+03 2.511079643153532288e+02
1.029000000000000000e+03 2.245353535269699421e+02
1.030000000000000000e+03 2.081288574688793460e+02
1.031000000000000000e+03 2.092558665975108454e+02
1.032000000000000000e+03 1.900241182572612786e+02
1.033000000000000000e+03 1.661622983402473892e+02
1.034000000000000000e+03 1.451845634854785771e+02
1.035000000000000000e+03 1.392105161825724622e+02
1.036000000000000000e+03 1.588160012448138332e+02
1.037000000000000000e+03 1.584786333333325672e+02
1.038000000000000000e+03 1.569207398340244310e+02
1.039000000000000000e+03 1.602184802904562844e+02
1.040000000000000000e+03 1.597899064315365081e+02
1.041000000000000000e+03 1.716635813278004719e+02
1.042000000000000000e+03 1.722903099378881961e+02
1.043000000000000000e+03 1.730062045643155102e+02
1.044000000000000000e+03 1.797029145228211462e+02
1.045000000000000000e+03 1.998964170124470172e+02
1.046000000000000000e+03 2.190036142857148320e+02
1.047000000000000000e+03 2.121206468879648526e+02
1.048000000000000000e+03 2.070859387966795850e+02
1.049000000000000000e+03 2.026176919087141073e+02
1.050000000000000000e+03 1.675585912863060969e+02
1.051000000000000000e+03 1.514601087136956323e+02
1.052000000000000000e+03 1.212605784232374049e+02
1.053000000000000000e+03 9.651712643153447857e+01
1.054000000000000000e+03 6.429636416149079992e+01
1.055000000000000000e+03 5.945401296680454095e+01
1.056000000000000000e+03 5.783165591286302032e+01
1.057000000000000000e+03 3.961844906638829400e+01
1.058000000000000000e+03 2.460427645228241289e+01
1.059000000000000000e+03 2.904732672199151011e+01
1.060000000000000000e+03 3.220063219916982433e+01
1.061000000000000000e+03 5.297616514520166575e+00
1.062000000000000000e+03 2.292855542443344330e+00
1.063000000000000000e+03 5.442262713692906928e+00
1.064000000000000000e+03 2.885879935685505604e+00
1.065000000000000000e+03 7.942070595435911429e+00
1.066000000000000000e+03 2.422497068322792657e+00
1.067000000000000000e+03 5.078840178423119411e+00
1.068000000000000000e+03 1.285212174273863539e+01
1.069000000000000000e+03 1.343043531120362211e+01
1.070000000000000000e+03 3.501610983402350996e+00
1.071000000000000000e+03 5.415873782608967346e+00
1.072000000000000000e+03 1.010853121161739132e+01
1.073000000000000000e+03 2.615599566390159225e+00
1.074000000000000000e+03 1.111020179875551683e+01
1.075000000000000000e+03 5.701911663901169547e+00
1.076000000000000000e+03 1.725813132779880688e+00
1.077000000000000000e+03 1.523528394190941526e+01
1.078000000000000000e+03 2.513184016597322312e+01
1.079000000000000000e+03 1.287520620331880394e+01
1.080000000000000000e+03 2.402023495850620805e+01
1.081000000000000000e+03 1.344368800829805188e+01
1.082000000000000000e+03 7.818463632780070505e+00
1.083000000000000000e+03 6.289138490683257920e+00
1.084000000000000000e+03 4.416159518672107431e+00
1.085000000000000000e+03 2.074012240663734019e+00
1.086000000000000000e+03 1.710433294605612531e+01
1.087000000000000000e+03 3.539206414937754630e+01
1.088000000000000000e+03 2.745466713692810856e+01
1.089000000000000000e+03 3.884792271784398121e+00
1.090000000000000000e+03 7.050171105808671790e+00
1.091000000000000000e+03 2.302059682572649990e+01
1.092000000000000000e+03 2.838619327800790515e+01
1.093000000000000000e+03 1.340716272614177385e+01
1.094000000000000000e+03 9.383517551867271322e+00
1.095000000000000000e+03 1.659630775933662150e+01
1.096000000000000000e+03 1.429195155601754053e+01
1.097000000000000000e+03 8.596758815352677274e+00
1.098000000000000000e+03 9.596665232365094056e+00
1.099000000000000000e+03 9.885767775933308243e+00
1.100000000000000000e+03 1.256659658385101608e+01
1.101000000000000000e+03 6.730450697095762713e+00
1.102000000000000000e+03 2.857282174273472197e+00
1.103000000000000000e+03 3.559611203319979378e+00
1.104000000000000000e+03 7.746937515527799079e+00
1.105000000000000000e+03 4.095836043568872320e+00
1.106000000000000000e+03 1.606965993775823520e+01
1.107000000000000000e+03 1.616179072614176349e+01
1.108000000000000000e+03 1.180791451759864863e+01
1.109000000000000000e+03 1.734619315352715319e+01
1.110000000000000000e+03 7.748229053942104372e+00
1.111000000000000000e+03 1.300598887966801342e+01
1.112000000000000000e+03 1.601445028985502361e+01
1.113000000000000000e+03 7.698861724067158185e+00
1.114000000000000000e+03 2.546522060165902346e+01
1.115000000000000000e+03 2.559287958506183713e+01
1.116000000000000000e+03 2.928330782608767535e+01
1.117000000000000000e+03 2.747902398340356100e+01
1.118000000000000000e+03 1.174541341078832701e+01
1.119000000000000000e+03 9.881875912863547384e+00
1.120000000000000000e+03 1.043657666390226346e+01
1.121000000000000000e+03 4.385435192945889682e+00
1.122000000000000000e+03 3.779165224066482409e+01
1.123000000000000000e+03 3.364004761410817679e+01
1.124000000000000000e+03 3.172581350622378693e+01
1.125000000000000000e+03 4.466249705394225344e+01
1.126000000000000000e+03 3.190495385891853175e+01
1.127000000000000000e+03 1.271261485477278086e+01
1.128000000000000000e+03 1.079121046473024137e+01
1.129000000000000000e+03 2.002590877593447871e+01
1.130000000000000000e+03 2.694337568464879240e+01
1.131000000000000000e+03 1.403473014522864304e+01
1.132000000000000000e+03 1.066890272406667428e+01
1.133000000000000000e+03 2.862872975155282163e+01
1.134000000000000000e+03 1.539764634854880576e+01
1.135000000000000000e+03 1.075767352697094914e+01
1.136000000000000000e+03 7.196455307053655659e+00
1.137000000000000000e+03 1.584283913043460856e+01
1.138000000000000000e+03 1.640924126556063811e+01
1.139000000000000000e+03 1.529273667842374351e+01
1.140000000000000000e+03 2.751979452282207461e+01
1.141000000000000000e+03 2.530357476190485500e+01
1.142000000000000000e+03 2.132255460580906359e+01
1.143000000000000000e+03 4.690312259596270961e-01
1.144000000000000000e+03 2.260572879667841661e+01
1.145000000000000000e+03 3.918096347826070058e+01
1.146000000000000000e+03 3.783381572614071331e+01
1.147000000000000000e+03 2.617263524896240767e+01
1.148000000000000000e+03 3.359411485477048132e+01
1.149000000000000000e+03 4.453661999999999921e+01
1.150000000000000000e+03 3.686576136929344472e+01
1.151000000000000000e+03 2.777220672199176121e+01
1.152000000000000000e+03 2.305288120331981361e+01
1.153000000000000000e+03 9.122044165974935837e+00
1.154000000000000000e+03 2.647051966804817624e+01
1.155000000000000000e+03 4.645801182572542132e+01
1.156000000000000000e+03 2.956611097510361219e+01
1.157000000000000000e+03 3.005431826087009384e+01
1.158000000000000000e+03 4.190347307053960435e+01
1.159000000000000000e+03 1.874692441493806072e+01
1.160000000000000000e+03 1.270577856846642462e+01
1.161000000000000000e+03 3.044829506224052551e+01
1.162000000000000000e+03 2.688118695652168810e+01
1.163000000000000000e+03 3.183851446058117318e+01
1.164000000000000000e+03 4.064335939834093381e+01
1.165000000000000000e+03 4.378675066390052706e+01
1.166000000000000000e+03 3.577888451345754106e+01
1.167000000000000000e+03 4.512354286307115814e+01
1.168000000000000000e+03 3.279802917012606400e+01
1.169000000000000000e+03 2.732690995850624915e+01
1.170000000000000000e+03 1.917634454356785412e+01
1.171000000000000000e+03 3.822311973028615029e+00
1.172000000000000000e+03 3.590397363069239400e+00
1.173000000000000000e+03 2.186559931535268575e+01
1.174000000000000000e+03 2.932945006211160077e+01
1.175000000000000000e+03 2.440209622406707979e+01
1.176000000000000000e+03 2.191874784232343742e+01
1.177000000000000000e+03 3.501591203319505041e+01
1.178000000000000000e+03 2.111446074688647556e+01
1.179000000000000000e+03 2.537632784232315686e+01
1.180000000000000000e+03 3.399536595435693442e+01
1.181000000000000000e+03 3.011259126555946963e+01
1.182000000000000000e+03 3.653229149377482798e+01
1.183000000000000000e+03 4.654387240663899661e+01
1.184000000000000000e+03 4.461451825726098264e+01
1.185000000000000000e+03 3.552449858921079340e+01
1.186000000000000000e+03 2.399515548654304808e+01
1.187000000000000000e+03 1.823616966805012396e+01
1.188000000000000000e+03 3.093107475103811055e+01
1.189000000000000000e+03 3.551432468879644944e+01
1.190000000000000000e+03 3.706084294605815188e+01
1.191000000000000000e+03 2.619901925465768144e+01
1.192000000000000000e+03 2.641658531120314990e+01
1.193000000000000000e+03 2.948571352697091186e+01
1.194000000000000000e+03 2.483306489626538749e+01
1.195000000000000000e+03 2.815035412008387539e+01
1.196000000000000000e+03 4.026590199170057360e+01
1.197000000000000000e+03 4.746613271784231358e+01
1.198000000000000000e+03 4.557596948132668047e+01
1.199000000000000000e+03 3.369489917012358404e+01
1.200000000000000000e+03 4.236701817427410077e+01
1.201000000000000000e+03 3.070841821576757269e+01
1.202000000000000000e+03 3.980258352697161683e+01
1.203000000000000000e+03 3.845154689441022100e+01
1.204000000000000000e+03 3.724325358921161211e+01
1.205000000000000000e+03 2.831640954356755557e+01
1.206000000000000000e+03 2.954336672199131897e+01
1.207000000000000000e+03 3.021022377593383368e+01
1.208000000000000000e+03 4.035072788381872044e+01
1.209000000000000000e+03 4.840167473028914458e+01
1.210000000000000000e+03 2.699436269709511649e+01
1.211000000000000000e+03 3.078381217391304148e+01
1.212000000000000000e+03 2.568612931535066934e+01
1.213000000000000000e+03 8.120960599584336137e+00
1.214000000000000000e+03 2.644267809128599822e+01
1.215000000000000000e+03 3.602533358178160938e+01
1.216000000000000000e+03 7.117551917012512774e+01
1.217000000000000000e+03 5.933546854771929446e+01
1.218000000000000000e+03 4.772512377593373145e+01
1.219000000000000000e+03 5.762781066390144957e+01
1.220000000000000000e+03 5.909042391304392083e+01
1.221000000000000000e+03 5.640637392116181559e+01
1.222000000000000000e+03 5.830542456431528819e+01
1.223000000000000000e+03 5.161690531120419934e+01
1.224000000000000000e+03 4.684547236514468693e+01
1.225000000000000000e+03 6.130387037344303280e+01
1.226000000000000000e+03 3.433570713692927256e+01
1.227000000000000000e+03 4.288708834024792793e+01
1.228000000000000000e+03 5.502847560165982799e+01
1.229000000000000000e+03 5.603885898340207916e+01
1.230000000000000000e+03 4.184801095435854279e+01
1.231000000000000000e+03 3.206522286307066594e+01
1.232000000000000000e+03 2.109222472049616215e+01
1.233000000000000000e+03 2.470852618257152500e+01
1.234000000000000000e+03 3.896009464730259708e+01
1.235000000000000000e+03 3.585160286307051081e+01
1.236000000000000000e+03 3.200005966804989299e+01
1.237000000000000000e+03 3.345107174274127004e+01
1.238000000000000000e+03 2.223145560165985302e+00
1.239000000000000000e+03 1.638701024896244807e+00
1.240000000000000000e+03 5.114828935817747890e+00
1.241000000000000000e+03 1.772385668049358820e+00
1.242000000000000000e+03 1.072363107883812816e+01
1.243000000000000000e+03 2.443942452282505684e+01
1.244000000000000000e+03 3.120217534161649553e+01
1.245000000000000000e+03 2.848815997925306576e+01
1.246000000000000000e+03 4.014198902489685139e+01
1.247000000000000000e+03 4.119976970954409978e+01
1.248000000000000000e+03 4.774861912862967728e+01
1.249000000000000000e+03 6.832121440993822148e+01
1.250000000000000000e+03 5.769474647302743620e+01
1.251000000000000000e+03 3.297623912863114981e+01
1.252000000000000000e+03 2.665251020746904231e+01
1.253000000000000000e+03 1.632790692946141675e+01
1.254000000000000000e+03 3.251174375518665016e+01
1.255000000000000000e+03 1.509428838174327936e+01
1.256000000000000000e+03 3.070779302904623620e+01
1.257000000000000000e+03 2.960658290456442998e+01
1.258000000000000000e+03 3.488733419087019882e+01
1.259000000000000000e+03 3.948334485477175804e+01
1.260000000000000000e+03 3.732014879668083296e+01
1.261000000000000000e+03 4.583947453416104878e+01
1.262000000000000000e+03 4.139086906639043661e+01
1.263000000000000000e+03 2.481444346473006135e+01
1.264000000000000000e+03 3.816858765560113653e+01
1.265000000000000000e+03 3.075843925465902018e+01
1.266000000000000000e+03 2.203397074688793822e+01
1.267000000000000000e+03 1.999650477178357377e+01
1.268000000000000000e+03 7.280595298756014522e+00
1.269000000000000000e+03 4.262642805382959921e+00
1.270000000000000000e+03 1.093465916805015148e+01
1.271000000000000000e+03 3.877208840249064092e+00
1.272000000000000000e+03 1.637551405601504939e+01
1.273000000000000000e+03 3.328146902691529618e+01
1.274000000000000000e+03 3.063381356846393899e+01
1.275000000000000000e+03 1.084159155186940282e+01
1.276000000000000000e+03 1.470502215767659493e+00
1.277000000000000000e+03 1.359128614522876966e+01
1.278000000000000000e+03 1.744237674273847105e+01
1.279000000000000000e+03 1.173103052282213454e+01
1.280000000000000000e+03 5.870949147303060833e+00
1.281000000000000000e+03 1.099930497925248396e+01
1.282000000000000000e+03 0.000000000000000000e+00
1.283000000000000000e+03 0.000000000000000000e+00
1.284000000000000000e+03 0.000000000000000000e+00
1.285000000000000000e+03 0.000000000000000000e+00
1.286000000000000000e+03 0.000000000000000000e+00
1.287000000000000000e+03 0.000000000000000000e+00
1.288000000000000000e+03 0.000000000000000000e+00
1.289000000000000000e+03 0.000000000000000000e+00
1.290000000000000000e+03 0.000000000000000000e+00
1.291000000000000000e+03 0.000000000000000000e+00
1.292000000000000000e+03 0.000000000000000000e+00
1.293000000000000000e+03 0.000000000000000000e+00
1.294000000000000000e+03 0.000000000000000000e+00
1.295000000000000000e+03 0.000000000000000000e+00
1.296000000000000000e+03 0.000000000000000000e+00
1.297000000000000000e+03 0.000000000000000000e+00
1.298000000000000000e+03 0.000000000000000000e+00
1.299000000000000000e+03 0.000000000000000000e+00
1.300000000000000000e+03 0.000000000000000000e+00
1.301000000000000000e+03 0.000000000000000000e+00
1.302000000000000000e+03 0.000000000000000000e+00
1.303000000000000000e+03 0.000000000000000000e+00
1.304000000000000000e+03 0.000000000000000000e+00
1.305000000000000000e+03 0.000000000000000000e+00
1.306000000000000000e+03 0.000000000000000000e+00
1.307000000000000000e+03 0.000000000000000000e+00
1.308000000000000000e+03 0.000000000000000000e+00
1.309000000000000000e+03 0.000000000000000000e+00
1.310000000000000000e+03 0.000000000000000000e+00
1.311000000000000000e+03 0.000000000000000000e+00
1.312000000000000000e+03 0.000000000000000000e+00
1.313000000000000000e+03 0.000000000000000000e+00
1.314000000000000000e+03 0.000000000000000000e+00
1.315000000000000000e+03 0.000000000000000000e+00
1.316000000000000000e+03 0.000000000000000000e+00
1.317000000000000000e+03 0.000000000000000000e+00
1.318000000000000000e+03 0.000000000000000000e+00
1.319000000000000000e+03 0.000000000000000000e+00
1.320000000000000000e+03 0.000000000000000000e+00
1.321000000000000000e+03 0.000000000000000000e+00
1.322000000000000000e+03 0.000000000000000000e+00
1.323000000000000000e+03 0.000000000000000000e+00
1.324000000000000000e+03 0.000000000000000000e+00
1.325000000000000000e+03 0.000000000000000000e+00
1.326000000000000000e+03 0.000000000000000000e+00
1.327000000000000000e+03 0.000000000000000000e+00
1.328000000000000000e+03 0.000000000000000000e+00
1.329000000000000000e+03 0.000000000000000000e+00
1.330000000000000000e+03 0.000000000000000000e+00
1.331000000000000000e+03 0.000000000000000000e+00
1.332000000000000000e+03 0.000000000000000000e+00
1.333000000000000000e+03 0.000000000000000000e+00
1.334000000000000000e+03 0.000000000000000000e+00
1.335000000000000000e+03 0.000000000000000000e+00
1.336000000000000000e+03 0.000000000000000000e+00
1.337000000000000000e+03 0.000000000000000000e+00
1.338000000000000000e+03 0.000000000000000000e+00
1.339000000000000000e+03 0.000000000000000000e+00
1.340000000000000000e+03 0.000000000000000000e+00
1.341000000000000000e+03 0.000000000000000000e+00
1.342000000000000000e+03 0.000000000000000000e+00
1.343000000000000000e+03 0.000000000000000000e+00
1.344000000000000000e+03 0.000000000000000000e+00
1.345000000000000000e+03 0.000000000000000000e+00
1.346000000000000000e+03 0.000000000000000000e+00
1.347000000000000000e+03 0.000000000000000000e+00
1.348000000000000000e+03 0.000000000000000000e+00
1.349000000000000000e+03 0.000000000000000000e+00
1.350000000000000000e+03 0.000000000000000000e+00
1.351000000000000000e+03 0.000000000000000000e+00
1.352000000000000000e+03 0.000000000000000000e+00
1.353000000000000000e+03 0.000000000000000000e+00
1.354000000000000000e+03 0.000000000000000000e+00
1.355000000000000000e+03 0.000000000000000000e+00
1.356000000000000000e+03 0.000000000000000000e+00
1.357000000000000000e+03 0.000000000000000000e+00
1.358000000000000000e+03 0.000000000000000000e+00
1.359000000000000000e+03 0.000000000000000000e+00
1.360000000000000000e+03 0.000000000000000000e+00
1.361000000000000000e+03 0.000000000000000000e+00
1.362000000000000000e+03 0.000000000000000000e+00
1.363000000000000000e+03 0.000000000000000000e+00
1.364000000000000000e+03 0.000000000000000000e+00
1.365000000000000000e+03 0.000000000000000000e+00
1.366000000000000000e+03 0.000000000000000000e+00
1.367000000000000000e+03 0.000000000000000000e+00
1.368000000000000000e+03 0.000000000000000000e+00
1.369000000000000000e+03 0.000000000000000000e+00
1.370000000000000000e+03 0.000000000000000000e+00
1.371000000000000000e+03 0.000000000000000000e+00
1.372000000000000000e+03 0.000000000000000000e+00
1.373000000000000000e+03 0.000000000000000000e+00
1.374000000000000000e+03 0.000000000000000000e+00
1.375000000000000000e+03 0.000000000000000000e+00
1.376000000000000000e+03 0.000000000000000000e+00
1.377000000000000000e+03 0.000000000000000000e+00
1.378000000000000000e+03 0.000000000000000000e+00
1.379000000000000000e+03 0.000000000000000000e+00
1.380000000000000000e+03 0.000000000000000000e+00
1.381000000000000000e+03 0.000000000000000000e+00
1.382000000000000000e+03 0.000000000000000000e+00
1.383000000000000000e+03 0.000000000000000000e+00
1.384000000000000000e+03 0.000000000000000000e+00
1.385000000000000000e+03 0.000000000000000000e+00
1.386000000000000000e+03 0.000000000000000000e+00
1.387000000000000000e+03 0.000000000000000000e+00
1.388000000000000000e+03 0.000000000000000000e+00
1.389000000000000000e+03 0.000000000000000000e+00
1.390000000000000000e+03 0.000000000000000000e+00
1.391000000000000000e+03 0.000000000000000000e+00
1.392000000000000000e+03 0.000000000000000000e+00
1.393000000000000000e+03 0.000000000000000000e+00
1.394000000000000000e+03 0.000000000000000000e+00
1.395000000000000000e+03 0.000000000000000000e+00
1.396000000000000000e+03 0.000000000000000000e+00
1.397000000000000000e+03 0.000000000000000000e+00
1.398000000000000000e+03 0.000000000000000000e+00
1.399000000000000000e+03 0.000000000000000000e+00
1.400000000000000000e+03 0.000000000000000000e+00
1.401000000000000000e+03 0.000000000000000000e+00
1.402000000000000000e+03 0.000000000000000000e+00
1.403000000000000000e+03 0.000000000000000000e+00
1.404000000000000000e+03 0.000000000000000000e+00
1.405000000000000000e+03 0.000000000000000000e+00
1.406000000000000000e+03 0.000000000000000000e+00
1.407000000000000000e+03 0.000000000000000000e+00
1.408000000000000000e+03 0.000000000000000000e+00
1.409000000000000000e+03 0.000000000000000000e+00
1.410000000000000000e+03 0.000000000000000000e+00
1.411000000000000000e+03 0.000000000000000000e+00
1.412000000000000000e+03 0.000000000000000000e+00
1.413000000000000000e+03 0.000000000000000000e+00
1.414000000000000000e+03 0.000000000000000000e+00
1.415000000000000000e+03 0.000000000000000000e+00
1.416000000000000000e+03 0.000000000000000000e+00
1.417000000000000000e+03 0.000000000000000000e+00
1.418000000000000000e+03 0.000000000000000000e+00
1.419000000000000000e+03 0.000000000000000000e+00
1.420000000000000000e+03 0.000000000000000000e+00
1.421000000000000000e+03 0.000000000000000000e+00
1.422000000000000000e+03 0.000000000000000000e+00
1.423000000000000000e+03 0.000000000000000000e+00
1.424000000000000000e+03 0.000000000000000000e+00
1.425000000000000000e+03 0.000000000000000000e+00
1.426000000000000000e+03 0.000000000000000000e+00
1.427000000000000000e+03 0.000000000000000000e+00
1.428000000000000000e+03 0.000000000000000000e+00
1.429000000000000000e+03 0.000000000000000000e+00
1.430000000000000000e+03 0.000000000000000000e+00
1.431000000000000000e+03 0.000000000000000000e+00
1.432000000000000000e+03 0.000000000000000000e+00
1.433000000000000000e+03 0.000000000000000000e+00
1.434000000000000000e+03 0.000000000000000000e+00
1.435000000000000000e+03 0.000000000000000000e+00
1.436000000000000000e+03 0.000000000000000000e+00
1.437000000000000000e+03 0.000000000000000000e+00
1.438000000000000000e+03 0.000000000000000000e+00
1.439000000000000000e+03 0.000000000000000000e+00
1.440000000000000000e+03 0.000000000000000000e+00
1.441000000000000000e+03 0.000000000000000000e+00
1.442000000000000000e+03 0.000000000000000000e+00
1.443000000000000000e+03 0.000000000000000000e+00
1.444000000000000000e+03 0.000000000000000000e+00
1.445000000000000000e+03 0.000000000000000000e+00
1.446000000000000000e+03 0.000000000000000000e+00
1.447000000000000000e+03 0.000000000000000000e+00
1.448000000000000000e+03 0.000000000000000000e+00
1.449000000000000000e+03 0.000000000000000000e+00
1.450000000000000000e+03 0.000000000000000000e+00
1.451000000000000000e+03 0.000000000000000000e+00
1.452000000000000000e+03 0.000000000000000000e+00
1.453000000000000000e+03 0.000000000000000000e+00
1.454000000000000000e+03 0.000000000000000000e+00
1.455000000000000000e+03 0.000000000000000000e+00
1.456000000000000000e+03 0.000000000000000000e+00
1.457000000000000000e+03 0.000000000000000000e+00
1.458000000000000000e+03 0.000000000000000000e+00
1.459000000000000000e+03 0.000000000000000000e+00
1.460000000000000000e+03 0.000000000000000000e+00
1.461000000000000000e+03 0.000000000000000000e+00
1.462000000000000000e+03 0.000000000000000000e+00
1.463000000000000000e+03 0.000000000000000000e+00
1.464000000000000000e+03 0.000000000000000000e+00
1.465000000000000000e+03 0.000000000000000000e+00
1.466000000000000000e+03 0.000000000000000000e+00
1.467000000000000000e+03 0.000000000000000000e+00
1.468000000000000000e+03 0.000000000000000000e+00
1.469000000000000000e+03 0.000000000000000000e+00
1.470000000000000000e+03 0.000000000000000000e+00
1.471000000000000000e+03 0.000000000000000000e+00
1.472000000000000000e+03 0.000000000000000000e+00
1.473000000000000000e+03 0.000000000000000000e+00
1.474000000000000000e+03 0.000000000000000000e+00
1.475000000000000000e+03 0.000000000000000000e+00
1.476000000000000000e+03 0.000000000000000000e+00
1.477000000000000000e+03 0.000000000000000000e+00
1.478000000000000000e+03 0.000000000000000000e+00
1.479000000000000000e+03 0.000000000000000000e+00
1.480000000000000000e+03 0.000000000000000000e+00
1.481000000000000000e+03 0.000000000000000000e+00
1.482000000000000000e+03 0.000000000000000000e+00
1.483000000000000000e+03 0.000000000000000000e+00
1.484000000000000000e+03 0.000000000000000000e+00
1.485000000000000000e+03 0.000000000000000000e+00
1.486000000000000000e+03 0.000000000000000000e+00
1.487000000000000000e+03 0.000000000000000000e+00
1.488000000000000000e+03 0.000000000000000000e+00
1.489000000000000000e+03 0.000000000000000000e+00
1.490000000000000000e+03 0.000000000000000000e+00
1.491000000000000000e+03 0.000000000000000000e+00
1.492000000000000000e+03 0.000000000000000000e+00
1.493000000000000000e+03 0.000000000000000000e+00
1.494000000000000000e+03 0.000000000000000000e+00
1.495000000000000000e+03 0.000000000000000000e+00
1.496000000000000000e+03 0.000000000000000000e+00
1.497000000000000000e+03 0.000000000000000000e+00
1.498000000000000000e+03 0.000000000000000000e+00
1.499000000000000000e+03 0.000000000000000000e+00
1.500000000000000000e+03 0.000000000000000000e+00
