1.010000000000000000e+02 0.000000000000000000e+00
1.020000000000000000e+02 0.000000000000000000e+00
1.030000000000000000e+02 0.000000000000000000e+00
1.040000000000000000e+02 0.000000000000000000e+00
1.050000000000000000e+02 0.000000000000000000e+00
1.060000000000000000e+02 0.000000000000000000e+00
1.070000000000000000e+02 0.000000000000000000e+00
1.080000000000000000e+02 0.000000000000000000e+00
1.090000000000000000e+02 0.000000000000000000e+00
1.100000000000000000e+02 0.000000000000000000e+00
1.110000000000000000e+02 0.000000000000000000e+00
1.120000000000000000e+02 0.000000000000000000e+00
1.130000000000000000e+02 7.392411881352424219e-01
1.140000000000000000e+02 2.720139661895870087e-01
1.150000000000000000e+02 3.229270268118619724e-01
1.160000000000000000e+02 5.771807702323202005e-02
1.170000000000000000e+02 1.571291397635340870e+00
1.180000000000000000e+02 2.797707844223194851e+00
1.190000000000000000e+02 4.731302232890918447e+00
1.200000000000000000e+02 4.880157009749005681e+00
1.210000000000000000e+02 3.504402794648409980e+00
1.220000000000000000e+02 6.585114700953953459e+00
1.230000000000000000e+02 8.334794688653804684e+00
1.240000000000000000e+02 8.170587457996266068e+00
1.250000000000000000e+02 7.613330587930319027e+00
1.260000000000000000e+02 8.102118901057874467e+00
1.270000000000000000e+02 7.883785852105372527e+00
1.280000000000000000e+02 1.067664610825380223e+01
1.290000000000000000e+02 1.396410070939641201e+01
1.300000000000000000e+02 1.247805993154947757e+01
1.310000000000000000e+02 1.426476217174860395e+01
1.320000000000000000e+02 1.769126967019289154e+01
1.330000000000000000e+02 2.061946920763325508e+01
1.340000000000000000e+02 2.181066859572704075e+01
1.350000000000000000e+02 2.419780439327941579e+01
1.360000000000000000e+02 2.665384846297448362e+01
1.370000000000000000e+02 2.761432096867870101e+01
1.380000000000000000e+02 2.886481891101432495e+01
1.390000000000000000e+02 3.566016240821411287e+01
1.400000000000000000e+02 3.788144682638456828e+01
1.410000000000000000e+02 3.739337670192906415e+01
1.420000000000000000e+02 3.713392053101016188e+01
1.430000000000000000e+02 3.845482963907905116e+01
1.440000000000000000e+02 4.194680158058494612e+01
1.450000000000000000e+02 4.693692921609288504e+01
1.460000000000000000e+02 5.245561046670812999e+01
1.470000000000000000e+02 5.795107775150390950e+01
1.480000000000000000e+02 6.582206033388638389e+01
1.490000000000000000e+02 7.400334565027999645e+01
1.500000000000000000e+02 8.315917974071760455e+01
1.510000000000000000e+02 9.488636932393200141e+01
1.520000000000000000e+02 1.098706213441195700e+02
1.530000000000000000e+02 1.343278199751088948e+02
1.540000000000000000e+02 1.623052621111569636e+02
1.550000000000000000e+02 1.908931832192494653e+02
1.560000000000000000e+02 2.224835714374613076e+02
1.570000000000000000e+02 2.454927628085459332e+02
1.580000000000000000e+02 2.737753818917234980e+02
1.590000000000000000e+02 3.030606588467120446e+02
1.600000000000000000e+02 3.235757862269240377e+02
1.610000000000000000e+02 3.482448392864551465e+02
1.620000000000000000e+02 3.768881428126944115e+02
1.630000000000000000e+02 4.058813068450526202e+02
1.640000000000000000e+02 4.368924449906662630e+02
1.650000000000000000e+02 4.812061293922425307e+02
1.660000000000000000e+02 5.230257597386432735e+02
1.670000000000000000e+02 5.743020945239571802e+02
1.680000000000000000e+02 6.388984490976965844e+02
1.690000000000000000e+02 7.085991492014109099e+02
1.700000000000000000e+02 8.024565107239162671e+02
1.710000000000000000e+02 9.048512567399413911e+02
1.720000000000000000e+02 1.003828643372743500e+03
1.730000000000000000e+02 1.087249437046256617e+03
1.740000000000000000e+02 1.137341139361260957e+03
1.750000000000000000e+02 1.115571195809998244e+03
1.760000000000000000e+02 1.010691822401992795e+03
1.770000000000000000e+02 8.487870449398571964e+02
1.780000000000000000e+02 6.862756409251187506e+02
1.790000000000000000e+02 5.342744482679944440e+02
1.800000000000000000e+02 4.137030887183751702e+02
1.810000000000000000e+02 3.248332603609202351e+02
1.820000000000000000e+02 2.533421852727645671e+02
1.830000000000000000e+02 2.043606532254719639e+02
1.840000000000000000e+02 1.683104165733252557e+02
1.850000000000000000e+02 1.408878952706909331e+02
1.860000000000000000e+02 1.200789235220907329e+02
1.870000000000000000e+02 1.024413581290188660e+02
1.880000000000000000e+02 8.732186559012659188e+01
1.890000000000000000e+02 7.639293448039825307e+01
1.900000000000000000e+02 6.888621603609202282e+01
1.910000000000000000e+02 6.103104468782406400e+01
1.920000000000000000e+02 5.170506323999174469e+01
1.930000000000000000e+02 4.579522948765819734e+01
1.940000000000000000e+02 4.186784891101427775e+01
1.950000000000000000e+02 3.597917982576226592e+01
1.960000000000000000e+02 3.094071074051027281e+01
1.970000000000000000e+02 2.882224152633762770e+01
1.980000000000000000e+02 2.665277373159090146e+01
1.990000000000000000e+02 2.278518568139388023e+01
2.000000000000000000e+02 1.997737689133139583e+01
2.010000000000000000e+02 1.633258488695293664e+01
2.020000000000000000e+02 1.454147451980916372e+01
2.030000000000000000e+02 1.437717975528825498e+01
2.040000000000000000e+02 1.288387726820161383e+01
2.050000000000000000e+02 1.014464791806680033e+01
2.060000000000000000e+02 8.277621047075914618e+00
2.070000000000000000e+02 6.900124017838606960e+00
2.080000000000000000e+02 4.943503474797748432e+00
2.090000000000000000e+02 2.202652259228544906e+00
2.100000000000000000e+02 1.452470323999170310e+00
2.110000000000000000e+02 1.366751408628912090e+00
2.120000000000000000e+02 1.281337521468576046e+00
2.130000000000000000e+02 1.658404632856253613e+00
2.140000000000000000e+02 2.867281580170088162e+00
2.150000000000000000e+02 1.149675567724548930e+00
2.160000000000000000e+02 6.704018216137610509e-01
2.170000000000000000e+02 1.634557959551960371e+00
2.180000000000000000e+02 9.803304172542385286e-01
2.190000000000000000e+02 1.833490815391001671e+00
2.200000000000000000e+02 1.666719148516905058e+00
2.210000000000000000e+02 1.412705638116962259e+00
2.220000000000000000e+02 4.869670074673315696e-01
2.230000000000000000e+02 2.046878309894194725e+00
2.240000000000000000e+02 3.248564712092927742e+00
2.250000000000000000e+02 2.502099576436403350e+00
2.260000000000000000e+02 6.234626197884274301e-02
2.270000000000000000e+02 3.638922570006130064e-01
2.280000000000000000e+02 1.677072900643014952e+00
2.290000000000000000e+02 2.817479099979265378e+00
2.300000000000000000e+02 3.358812406554656960e+00
2.310000000000000000e+02 3.041610941505916710e+00
2.320000000000000000e+02 8.127052124040877734e-01
2.330000000000000000e+02 2.553482978220334765e+00
2.340000000000000000e+02 3.258749227338717080e+00
2.350000000000000000e+02 1.519303739887984062e+00
2.360000000000000000e+02 2.829329166148095709e+00
2.370000000000000000e+02 1.795668873677643163e+00
2.380000000000000000e+02 4.835952496889209251e-01
2.390000000000000000e+02 1.007235272764978262e+00
2.400000000000000000e+02 4.917273051026737285e+00
2.410000000000000000e+02 6.478832950228117227e+00
2.420000000000000000e+02 7.291899211574366824e+00
2.430000000000000000e+02 6.629074375233350302e+00
2.440000000000000000e+02 5.262515718996261249e+00
2.450000000000000000e+02 9.096581815805794946e+00
2.460000000000000000e+02 1.215975611698820025e+01
2.470000000000000000e+02 1.367553674823724741e+01
2.480000000000000000e+02 1.561176548433933675e+01
2.490000000000000000e+02 2.021417188550089250e+01
2.500000000000000000e+02 2.299448377229367324e+01
2.510000000000000000e+02 2.372880103920348560e+01
2.520000000000000000e+02 2.385567496784899433e+01
2.530000000000000000e+02 2.547229481435380904e+01
2.540000000000000000e+02 3.178794018046054504e+01
2.550000000000000000e+02 3.397614122381249757e+01
2.560000000000000000e+02 3.682306843600918000e+01
2.570000000000000000e+02 4.189691958099990643e+01
2.580000000000000000e+02 4.737058952716713378e+01
2.590000000000000000e+02 5.352570079651511037e+01
2.600000000000000000e+02 6.062535896909334809e+01
2.610000000000000000e+02 6.747386806304437812e+01
2.620000000000000000e+02 7.414920670400323388e+01
2.630000000000000000e+02 8.238068392657109484e+01
2.640000000000000000e+02 8.994319955196019123e+01
2.650000000000000000e+02 9.959909276913498388e+01
2.660000000000000000e+02 1.111319398257621884e+02
2.670000000000000000e+02 1.231019868077163579e+02
2.680000000000000000e+02 1.355019453640324230e+02
2.690000000000000000e+02 1.527692667496369836e+02
2.700000000000000000e+02 1.687887049989630839e+02
2.710000000000000000e+02 1.856156001037132341e+02
2.720000000000000000e+02 2.116540259489734410e+02
2.730000000000000000e+02 2.345021200373369084e+02
2.740000000000000000e+02 2.633090785729109484e+02
2.750000000000000000e+02 2.951050473345784440e+02
2.760000000000000000e+02 3.271636187098105779e+02
2.770000000000000000e+02 3.662720385189784338e+02
2.780000000000000000e+02 4.042864108668611607e+02
2.790000000000000000e+02 4.475256554449279065e+02
2.800000000000000000e+02 4.958183146650064259e+02
2.810000000000000000e+02 5.445742799253414432e+02
2.820000000000000000e+02 5.935337710018667394e+02
2.830000000000000000e+02 6.406126327525406623e+02
2.840000000000000000e+02 6.970404075072583510e+02
2.850000000000000000e+02 7.556567264882806967e+02
2.860000000000000000e+02 7.970593983820784842e+02
2.870000000000000000e+02 8.568795469514732304e+02
2.880000000000000000e+02 9.093828930512348734e+02
2.890000000000000000e+02 9.616794419415064112e+02
2.900000000000000000e+02 1.025086686395684637e+03
2.910000000000000000e+02 1.083321915370256420e+03
2.920000000000000000e+02 1.135689190209501021e+03
2.930000000000000000e+02 1.181017734702342977e+03
2.940000000000000000e+02 1.216434259489731858e+03
2.950000000000000000e+02 1.239528301804605462e+03
2.960000000000000000e+02 1.251648959551960161e+03
2.970000000000000000e+02 1.227038566687409912e+03
2.980000000000000000e+02 1.186158973864344262e+03
2.990000000000000000e+02 1.126553742584526162e+03
3.000000000000000000e+02 1.023455375855632383e+03
3.010000000000000000e+02 9.130139403443283754e+02
3.020000000000000000e+02 7.959347975938593436e+02
3.030000000000000000e+02 6.806239735532046780e+02
3.040000000000000000e+02 5.763712514001249474e+02
3.050000000000000000e+02 4.888462357187293605e+02
3.060000000000000000e+02 4.174434200580786296e+02
3.070000000000000000e+02 3.543163135213598594e+02
3.080000000000000000e+02 2.993204061190612606e+02
3.090000000000000000e+02 2.558971845675164332e+02
3.100000000000000000e+02 2.229240815844048313e+02
3.110000000000000000e+02 1.931035262808553057e+02
3.120000000000000000e+02 1.672648741962247811e+02
3.130000000000000000e+02 1.462578387391123727e+02
3.140000000000000000e+02 1.282928382078409584e+02
3.150000000000000000e+02 1.106386297033813975e+02
3.160000000000000000e+02 1.002795098921609593e+02
3.170000000000000000e+02 8.964436099149563120e+01
3.180000000000000000e+02 7.672802284380843219e+01
3.190000000000000000e+02 6.922410009956435317e+01
3.200000000000000000e+02 6.241786552167598501e+01
3.210000000000000000e+02 6.102295417340800299e+01
3.220000000000000000e+02 5.958113512549254409e+01
3.230000000000000000e+02 5.466228207840693898e+01
3.240000000000000000e+02 5.310337748599874885e+01
3.250000000000000000e+02 5.205664382493255715e+01
3.260000000000000000e+02 5.090627423978425270e+01
3.270000000000000000e+02 4.969793260112007971e+01
3.280000000000000000e+02 4.895132613565650104e+01
3.290000000000000000e+02 5.161487170504049260e+01
3.300000000000000000e+02 4.987178535780950028e+01
3.310000000000000000e+02 4.671029471064099425e+01
3.320000000000000000e+02 4.581803658991904626e+01
3.330000000000000000e+02 4.899953346536700138e+01
3.340000000000000000e+02 5.208925364032356242e+01
3.350000000000000000e+02 5.558977345986306773e+01
3.360000000000000000e+02 5.608278156366655764e+01
3.370000000000000000e+02 5.552379286869945219e+01
3.380000000000000000e+02 6.046233829703380280e+01
3.390000000000000000e+02 5.848547132932390724e+01
3.400000000000000000e+02 5.460594968886118750e+01
3.410000000000000000e+02 5.065456882389543125e+01
3.420000000000000000e+02 4.545388056419830036e+01
3.430000000000000000e+02 3.826971645716642456e+01
3.440000000000000000e+02 3.359894854594476499e+01
3.450000000000000000e+02 2.852054440066358154e+01
3.460000000000000000e+02 2.352780354698203880e+01
3.470000000000000000e+02 1.908080596764142456e+01
3.480000000000000000e+02 1.314421474491908448e+01
3.490000000000000000e+02 1.094497163451568333e+01
3.500000000000000000e+02 8.689352878655963508e+00
3.510000000000000000e+02 6.137356591041044140e+00
3.520000000000000000e+02 5.285528975938603935e+00
3.530000000000000000e+02 5.342223448039827183e+00
3.540000000000000000e+02 4.374712002903364372e+00
3.550000000000000000e+02 3.971120538892345397e+00
3.560000000000000000e+02 3.662913020327740021e+00
3.570000000000000000e+02 2.671517931978426130e+00
3.580000000000000000e+02 4.347668527691346263e+00
3.590000000000000000e+02 2.724306774113251173e+00
3.600000000000000000e+02 5.148777125077577121e-01
3.610000000000000000e+02 5.294829840282113675e-01
3.620000000000000000e+02 5.179094961626204974e-01
3.630000000000000000e+02 4.219081758971163776e-01
3.640000000000000000e+02 8.635170062227897070e-01
3.650000000000000000e+02 1.199567894212819619e+00
3.660000000000000000e+02 9.431796957062963394e-01
3.670000000000000000e+02 3.061076733043065490e-01
3.680000000000000000e+02 5.495618780771449607e-02
3.690000000000000000e+02 3.185111430491553014e-02
3.700000000000000000e+02 2.528696016330571616e-01
3.710000000000000000e+02 1.631016357602252387e-01
3.720000000000000000e+02 1.361007877411325895e+00
3.730000000000000000e+02 4.709428619676477301e-01
3.740000000000000000e+02 8.251738875985011878e-01
3.750000000000000000e+02 7.334706469612061186e-01
3.760000000000000000e+02 6.093537369840256179e-01
3.770000000000000000e+02 1.848428192658654545e+00
3.780000000000000000e+02 1.096527738021129572e+00
3.790000000000000000e+02 6.425841833644652112e-01
3.800000000000000000e+02 1.462585048527580867e+00
3.810000000000000000e+02 6.272720587014734006e-01
3.820000000000000000e+02 1.364769746110793935e+00
3.830000000000000000e+02 1.023521712567412756e+00
3.840000000000000000e+02 1.087181233354064025e+00
3.850000000000000000e+02 9.787407523335098780e-01
3.860000000000000000e+02 3.253665536195740060e-01
3.870000000000000000e+02 8.965895575606880330e-01
3.880000000000000000e+02 7.547625162828965895e-01
3.890000000000000000e+02 1.130458598838415707e+00
3.900000000000000000e+02 1.228918841941498696e+00
3.910000000000000000e+02 1.862125487865597506e+00
3.920000000000000000e+02 1.013442095208461735e+00
3.930000000000000000e+02 2.845537390790297660e+00
3.940000000000000000e+02 2.096540011615854571e+00
3.950000000000000000e+02 9.112471933209099761e-01
3.960000000000000000e+02 1.907347431860605846e+00
3.970000000000000000e+02 1.227639607449092729e+00
3.980000000000000000e+02 2.134701202447631729e+00
3.990000000000000000e+02 1.911976303049149006e+00
4.000000000000000000e+02 1.192809987557017948e+00
4.010000000000000000e+02 6.480097996266049876e-01
4.020000000000000000e+02 1.750018506119061845e+00
4.030000000000000000e+02 6.078377104935549502e-01
4.040000000000000000e+02 8.955793068450021432e-02
4.050000000000000000e+02 9.023107293092448300e-01
4.060000000000000000e+02 2.142537773123174283e+00
4.070000000000000000e+02 2.649102769135035285e+00
4.080000000000000000e+02 1.358773747147912658e+00
4.090000000000000000e+02 3.101498975528803603e-01
4.100000000000000000e+02 7.046650236465499262e-01
4.110000000000000000e+02 2.277903700269650500e+00
4.120000000000000000e+02 3.655876275254109409e+00
4.130000000000000000e+02 4.108161758348888526e+00
4.140000000000000000e+02 3.683507611698812578e+00
4.150000000000000000e+02 3.151115175482258834e+00
4.160000000000000000e+02 2.982790636797345130e+00
4.170000000000000000e+02 2.781711757726600620e+00
4.180000000000000000e+02 1.670997896494520463e+00
4.190000000000000000e+02 2.556384178593658074e+00
4.200000000000000000e+02 4.143215379796750142e+00
4.210000000000000000e+02 4.850241571665623752e+00
4.220000000000000000e+02 4.697059554864147835e+00
4.230000000000000000e+02 2.506621342252695950e+00
4.240000000000000000e+02 3.152579245799616459e+00
4.250000000000000000e+02 4.162067739473136463e+00
4.260000000000000000e+02 4.236086086685998175e+00
4.270000000000000000e+02 5.596301872640532693e+00
4.280000000000000000e+02 5.505221388923460246e+00
4.290000000000000000e+02 4.555429329946080408e+00
4.300000000000000000e+02 3.453996947313821231e+00
4.310000000000000000e+02 2.906832811449908238e+00
4.320000000000000000e+02 3.457419416009967161e+00
4.330000000000000000e+02 4.526136139390183999e+00
4.340000000000000000e+02 3.772760747147865690e+00
4.350000000000000000e+02 2.480964577768571377e+00
4.360000000000000000e+02 2.222817191868903919e+00
4.370000000000000000e+02 2.899351462352232733e+00
4.380000000000000000e+02 4.308403444214005340e+00
4.390000000000000000e+02 3.806344858120738639e+00
4.400000000000000000e+02 3.581725444306147033e+00
4.410000000000000000e+02 3.361082484131930226e+00
4.420000000000000000e+02 1.636816207840700699e+00
4.430000000000000000e+02 1.833701555486400681e+00
4.440000000000000000e+02 3.274562623936948746e+00
4.450000000000000000e+02 3.228494377929890469e+00
4.460000000000000000e+02 2.562889737398878154e+00
4.470000000000000000e+02 2.496949181705030441e+00
4.480000000000000000e+02 9.205193515868002052e-01
4.490000000000000000e+02 2.354817075088162071e+00
4.500000000000000000e+02 2.959056438498222530e+00
4.510000000000000000e+02 3.635404723708802077e+00
4.520000000000000000e+02 4.968347110143124468e+00
4.530000000000000000e+02 1.638170133582293131e+00
4.540000000000000000e+02 7.638121271520581512e-01
4.550000000000000000e+02 1.744425206553313679e+00
4.560000000000000000e+02 2.040555176104561497e+00
4.570000000000000000e+02 1.002934689276100855e+00
4.580000000000000000e+02 3.185608013316202913e-01
4.590000000000000000e+02 5.112694992740064448e-01
4.600000000000000000e+02 5.540733642221258304e-01
4.610000000000000000e+02 2.532195034840309056e+00
4.620000000000000000e+02 3.672454724538477766e+00
4.630000000000000000e+02 3.203273856876171610e+00
4.640000000000000000e+02 1.051478501659041109e+00
4.650000000000000000e+02 1.728377451151229316e+00
4.660000000000000000e+02 4.282127401783869303e+00
4.670000000000000000e+02 5.025571692387353906e+00
4.680000000000000000e+02 1.405472982991090802e+00
4.690000000000000000e+02 2.843121413192298608e+00
4.700000000000000000e+02 3.152148484131938044e+00
4.710000000000000000e+02 2.038022370462514221e+00
4.720000000000000000e+02 9.345957736983945274e-01
4.730000000000000000e+02 1.316138038996035764e+00
4.740000000000000000e+02 3.182456907902904142e+00
4.750000000000000000e+02 2.020721995436695284e+00
4.760000000000000000e+02 1.043453978842546981e+00
4.770000000000000000e+02 9.074862814769064645e-01
4.780000000000000000e+02 1.942508617921566927e+00
4.790000000000000000e+02 1.056060220286246798e+00
4.800000000000000000e+02 3.759009226094166767e+00
4.810000000000000000e+02 3.060816594359204945e+00
4.820000000000000000e+02 9.332999968886007691e-01
4.830000000000000000e+02 3.837792115743665633e-01
4.840000000000000000e+02 1.252226398589798562e+00
4.850000000000000000e+02 1.054063972412355943e+00
4.860000000000000000e+02 9.321380647168631128e-01
4.870000000000000000e+02 5.706182459560433795e-01
4.880000000000000000e+02 3.385653428749246796e-01
4.890000000000000000e+02 6.985968292885300635e-01
4.900000000000000000e+02 1.829902123600177233e-01
4.910000000000000000e+02 2.046530916199901462e+00
4.920000000000000000e+02 2.819859034847544965e+00
4.930000000000000000e+02 2.012799032358439266e+00
4.940000000000000000e+02 8.934837166563113220e-01
4.950000000000000000e+02 1.286249089587082062e-01
4.960000000000000000e+02 1.612198648413194269e+00
4.970000000000000000e+02 1.014563302426889191e+00
4.980000000000000000e+02 9.032329402613381575e-01
4.990000000000000000e+02 2.484344498859163419e+00
5.000000000000000000e+02 2.611753623729516693e+00
5.010000000000000000e+02 2.619492439950217744e+00
5.020000000000000000e+02 7.275927604231037238e-01
5.030000000000000000e+02 1.397796071389596939e+00
5.040000000000000000e+02 2.865476595104747837e+00
5.050000000000000000e+02 1.276176460692774350e+00
5.060000000000000000e+02 1.363247790914757784e+00
5.070000000000000000e+02 2.946064077975945938e+00
5.080000000000000000e+02 1.716994043559484151e+00
5.090000000000000000e+02 5.212616258949683695e-02
5.100000000000000000e+02 5.737273600166020726e-01
5.110000000000000000e+02 1.546205710640924824e+00
5.120000000000000000e+02 3.677259653670664541e+00
5.130000000000000000e+02 3.935260322339789507e+00
5.140000000000000000e+02 2.431959551545280984e+00
5.150000000000000000e+02 8.888563780588661922e-01
5.160000000000000000e+02 5.359207062850021019e-01
5.170000000000000000e+02 1.717881342460064076e+00
5.180000000000000000e+02 1.375202188303596307e+00
5.190000000000000000e+02 2.211263964737641530e+00
5.200000000000000000e+02 2.584481679527037112e+00
5.210000000000000000e+02 9.950601742377359615e-01
5.220000000000000000e+02 2.100002362995247562e+00
5.230000000000000000e+02 2.790542642812697594e+00
5.240000000000000000e+02 2.981340512756687211e+00
5.250000000000000000e+02 2.290514467952685429e+00
5.260000000000000000e+02 1.859561771831576449e+00
5.270000000000000000e+02 3.093724557768104066e+00
5.280000000000000000e+02 2.634087323791741042e+00
5.290000000000000000e+02 4.852479502800253641e+00
5.300000000000000000e+02 4.640096746733068045e+00
5.310000000000000000e+02 2.489015180460502741e+00
5.320000000000000000e+02 2.158158883011822571e+00
5.330000000000000000e+02 3.913727608587443729e+00
5.340000000000000000e+02 7.813781749744813654e-01
5.350000000000000000e+02 2.570441062629603035e+00
5.360000000000000000e+02 4.022746584526006863e+00
5.370000000000000000e+02 2.308665420452188144e+00
5.380000000000000000e+02 2.720812366445458430e+00
5.390000000000000000e+02 2.260766255133785485e+00
5.400000000000000000e+02 1.279863747770176419e+00
5.410000000000000000e+02 1.441177717129821900e+00
5.420000000000000000e+02 2.505719076332712181e+00
5.430000000000000000e+02 3.069669973242065364e+00
5.440000000000000000e+02 2.877533901907921798e+00
5.450000000000000000e+02 3.952608588674545231e+00
5.460000000000000000e+02 4.737295209914948124e+00
5.470000000000000000e+02 3.662548224642183659e+00
5.480000000000000000e+02 1.877827531425014573e+00
5.490000000000000000e+02 2.205106286455098097e+00
5.500000000000000000e+02 4.431910849616261139e+00
5.510000000000000000e+02 4.402642279610049059e+00
5.520000000000000000e+02 3.822467714996893751e+00
5.530000000000000000e+02 3.942088968263842030e+00
5.540000000000000000e+02 3.817255857291039334e+00
5.550000000000000000e+02 1.799822439327977586e+00
5.560000000000000000e+02 1.462512433312588289e+00
5.570000000000000000e+02 1.640158523335404128e+00
5.580000000000000000e+02 2.452247881974657595e+00
5.590000000000000000e+02 3.587498259074869189e+00
5.600000000000000000e+02 3.937970998962867952e+00
5.610000000000000000e+02 3.460825275819190860e+00
5.620000000000000000e+02 1.979870891723710669e+00
5.630000000000000000e+02 1.347312954366313154e+00
5.640000000000000000e+02 2.603169303608361851e+00
5.650000000000000000e+02 4.264880465463571468e+00
5.660000000000000000e+02 2.633950415059102657e+00
5.670000000000000000e+02 2.873737694939863641e+00
5.680000000000000000e+02 6.708393424601526434e-01
5.690000000000000000e+02 1.094417226925215703e+00
5.700000000000000000e+02 3.619207233927792977e+00
5.710000000000000000e+02 3.674796313627897604e+00
5.720000000000000000e+02 2.262797758971221818e+00
5.730000000000000000e+02 1.789599274160103226e+00
5.740000000000000000e+02 2.571185041485143152e+00
5.750000000000000000e+02 2.794099987554475639e+00
5.760000000000000000e+02 2.131281191039204437e+00
5.770000000000000000e+02 1.991295504874510236e+00
5.780000000000000000e+02 1.703519012030694668e+00
5.790000000000000000e+02 3.023509582036941534e+00
5.800000000000000000e+02 3.256419776602351490e+00
5.810000000000000000e+02 2.710856936320265476e+00
5.820000000000000000e+02 2.384754293507535650e+00
5.830000000000000000e+02 1.458353724123618411e+00
5.840000000000000000e+02 2.639835423148774396e+00
5.850000000000000000e+02 3.050013547604233377e+00
5.860000000000000000e+02 2.954244140219876691e+00
5.870000000000000000e+02 3.258463435386879326e+00
5.880000000000000000e+02 3.966088521468587924e+00
5.890000000000000000e+02 3.988900239576875340e+00
5.900000000000000000e+02 3.153214941920768233e+00
5.910000000000000000e+02 3.992079615225005540e+00
5.920000000000000000e+02 4.150849509230473799e+00
5.930000000000000000e+02 3.249054106409459575e+00
5.940000000000000000e+02 3.216624438290817789e+00
5.950000000000000000e+02 2.454995435386844171e+00
5.960000000000000000e+02 1.710768926986100169e+00
5.970000000000000000e+02 2.270281064716867192e+00
5.980000000000000000e+02 2.567148462974475187e+00
5.990000000000000000e+02 1.754281333540734344e+00
6.000000000000000000e+02 9.505008996058782467e-01
6.010000000000000000e+02 1.582536157021406931e+00
6.020000000000000000e+02 2.634909233976373333e+00
6.030000000000000000e+02 2.685170648693468110e+00
6.040000000000000000e+02 2.081378788840469340e+00
6.050000000000000000e+02 1.300772182949552880e+00
6.060000000000000000e+02 2.107010420987097399e-01
6.070000000000000000e+02 7.544387573117420365e-01
6.080000000000000000e+02 1.292810684297854396e+00
6.090000000000000000e+02 2.217997993778557664e+00
6.100000000000000000e+02 2.399824138560465947e+00
6.110000000000000000e+02 1.153858760423151608e+00
6.120000000000000000e+02 4.765213228950576640e-01
6.130000000000000000e+02 8.583239576851395825e-01
6.140000000000000000e+02 1.827797333955633707e+00
6.150000000000000000e+02 1.848724714582009376e+00
6.160000000000000000e+02 1.190546883011813550e+00
6.170000000000000000e+02 1.438838084837199993e+00
6.180000000000000000e+02 2.945622184816400591e+00
6.190000000000000000e+02 7.759599383428238406e-01
6.200000000000000000e+02 1.903779266309973961e-01
6.210000000000000000e+02 1.429963079029200834e+00
6.220000000000000000e+02 1.834328825762265858e+00
6.230000000000000000e+02 7.023049535366078233e-01
6.240000000000000000e+02 1.418758602364650345e+00
6.250000000000000000e+02 9.773708904791603702e-01
6.260000000000000000e+02 2.770977807508800406e-01
6.270000000000000000e+02 1.954499966811767964e-01
6.280000000000000000e+02 7.961949271935324646e-01
6.290000000000000000e+02 1.599661148900876961e+00
6.300000000000000000e+02 3.453201070939615480e+00
6.310000000000000000e+02 8.464210170089179197e-01
6.320000000000000000e+02 1.091427228121110593e+00
6.330000000000000000e+02 9.367743710848361882e-01
6.340000000000000000e+02 9.481063378967026223e-01
6.350000000000000000e+02 5.821751619659801813e-01
6.360000000000000000e+02 1.853106852520232994e+00
6.370000000000000000e+02 8.290310045633677571e-01
6.380000000000000000e+02 7.614678871837289309e-01
6.390000000000000000e+02 3.296643504953355452e-01
6.400000000000000000e+02 4.334353482679956793e-01
6.410000000000000000e+02 3.845567432558950893e-02
6.420000000000000000e+02 2.883629711678075136e-01
6.430000000000000000e+02 2.503427417548239053e-01
6.440000000000000000e+02 1.350205872433111409e+00
6.450000000000000000e+02 9.340971387678976834e-01
6.460000000000000000e+02 8.814948732628355987e-01
6.470000000000000000e+02 5.391518815598423942e-01
6.480000000000000000e+02 3.913615021779672798e-01
6.490000000000000000e+02 3.984072820991244046e-01
6.500000000000000000e+02 1.456411168222358388e+00
6.510000000000000000e+02 6.304800686579795643e-01
6.520000000000000000e+02 2.801826627255847857e-01
6.530000000000000000e+02 2.037443562538885811e+00
6.540000000000000000e+02 2.739860657540150735e-01
6.550000000000000000e+02 5.754787179593229274e-01
6.560000000000000000e+02 1.936864127981747563e+00
6.570000000000000000e+02 1.480569636589918359e+00
6.580000000000000000e+02 7.032569218166302427e-01
6.590000000000000000e+02 2.220301926986095076e+00
6.600000000000000000e+02 2.190291559220077122e+00
6.610000000000000000e+02 2.375563697221060533e+00
6.620000000000000000e+02 3.074278617299299743e+00
6.630000000000000000e+02 3.448464240199129893e+00
6.640000000000000000e+02 3.472940251762750119e+00
6.650000000000000000e+02 3.665275110350546761e+00
6.660000000000000000e+02 3.566664644057263800e+00
6.670000000000000000e+02 1.412358776441352992e+00
6.680000000000000000e+02 2.414118647375992133e+00
6.690000000000000000e+02 3.732445954781164588e+00
6.700000000000000000e+02 3.418157939016805980e+00
6.710000000000000000e+02 2.732407993154944759e+00
6.720000000000000000e+02 3.329083667288943893e+00
6.730000000000000000e+02 3.233622269861029963e+00
6.740000000000000000e+02 5.169970456751752153e+00
6.750000000000000000e+02 5.320427798382048046e+00
6.760000000000000000e+02 4.399522094586163057e+00
6.770000000000000000e+02 5.235918057664405545e+00
6.780000000000000000e+02 5.230916671644877169e+00
6.790000000000000000e+02 4.529610668118663419e+00
6.800000000000000000e+02 6.254391082140515756e+00
6.810000000000000000e+02 8.066239146650001857e+00
6.820000000000000000e+02 8.087445458618581995e+00
6.830000000000000000e+02 7.712034735324547086e+00
6.840000000000000000e+02 9.400984461634216416e+00
6.850000000000000000e+02 7.683915103298078364e+00
6.860000000000000000e+02 9.299742036921765376e+00
6.870000000000000000e+02 1.178534544794690397e+01
6.880000000000000000e+02 1.316170745695914235e+01
6.890000000000000000e+02 1.392256833851898890e+01
6.900000000000000000e+02 1.487173004562423273e+01
6.910000000000000000e+02 1.483300954988592046e+01
6.920000000000000000e+02 1.644417884048959166e+01
6.930000000000000000e+02 1.847349715678132753e+01
6.940000000000000000e+02 1.916714694461731128e+01
6.950000000000000000e+02 1.962358168014948134e+01
6.960000000000000000e+02 2.212236335822437994e+01
6.970000000000000000e+02 2.391639126114901259e+01
6.980000000000000000e+02 2.800272395146224014e+01
6.990000000000000000e+02 2.890941360920971093e+01
7.000000000000000000e+02 3.065835075917851427e+01
7.010000000000000000e+02 3.507664135034217168e+01
7.020000000000000000e+02 3.970996164073846302e+01
7.030000000000000000e+02 4.527440776602367123e+01
7.040000000000000000e+02 5.303551907902926388e+01
7.050000000000000000e+02 5.873321070939651634e+01
7.060000000000000000e+02 6.618250751918712638e+01
7.070000000000000000e+02 7.590985825140035104e+01
7.080000000000000000e+02 8.564968525824562562e+01
7.090000000000000000e+02 9.555145070732277190e+01
7.100000000000000000e+02 1.119498073206144255e+02
7.110000000000000000e+02 1.278190346608580654e+02
7.120000000000000000e+02 1.428119382078412514e+02
7.130000000000000000e+02 1.569997151804235500e+02
7.140000000000000000e+02 1.716411830947932344e+02
7.150000000000000000e+02 1.888301298485786788e+02
7.160000000000000000e+02 2.076445748444626531e+02
7.170000000000000000e+02 2.274513368388300592e+02
7.180000000000000000e+02 2.472876079444098139e+02
7.190000000000000000e+02 2.674426020323520561e+02
7.200000000000000000e+02 2.893365221530807503e+02
7.210000000000000000e+02 3.107655545737402463e+02
7.220000000000000000e+02 3.246561719352836803e+02
7.230000000000000000e+02 3.357544024891101913e+02
7.240000000000000000e+02 3.329993800041482359e+02
7.250000000000000000e+02 3.172273677037950392e+02
7.260000000000000000e+02 2.899252703795883690e+02
7.270000000000000000e+02 2.542759345571451490e+02
7.280000000000000000e+02 2.164199114499078291e+02
7.290000000000000000e+02 1.777339523957676590e+02
7.300000000000000000e+02 1.471312433727438815e+02
7.310000000000000000e+02 1.203163640323586492e+02
7.320000000000000000e+02 9.794755243310535775e+01
7.330000000000000000e+02 8.053890368180893233e+01
7.340000000000000000e+02 6.653511184401558864e+01
7.350000000000000000e+02 5.574800817050392254e+01
7.360000000000000000e+02 4.810038613023637311e+01
7.370000000000000000e+02 4.202294879070719702e+01
7.380000000000000000e+02 3.582580535366099639e+01
7.390000000000000000e+02 3.025648500414761699e+01
7.400000000000000000e+02 2.621568574362159154e+01
7.410000000000000000e+02 2.250265655673094045e+01
7.420000000000000000e+02 1.899114824968890147e+01
7.430000000000000000e+02 1.814165995229205208e+01
7.440000000000000000e+02 1.654493935905412982e+01
7.450000000000000000e+02 1.499668651596846658e+01
7.460000000000000000e+02 1.306407724745900545e+01
7.470000000000000000e+02 9.858842903961834381e+00
7.480000000000000000e+02 8.461434601410189771e+00
7.490000000000000000e+02 8.792552788425636479e+00
7.500000000000000000e+02 8.207132968056415123e+00
7.510000000000000000e+02 7.191433622277522808e+00
7.520000000000000000e+02 5.914593753785519326e+00
7.530000000000000000e+02 5.428878911014304975e+00
7.540000000000000000e+02 6.206323139390167221e+00
7.550000000000000000e+02 5.641367593445345108e+00
7.560000000000000000e+02 4.739070416096261340e+00
7.570000000000000000e+02 2.080877173822848647e+00
7.580000000000000000e+02 9.992682377100134961e-01
7.590000000000000000e+02 2.522824068450493229e+00
7.600000000000000000e+02 3.992691310309063990e+00
7.610000000000000000e+02 3.195085966397023469e+00
7.620000000000000000e+02 2.236740705662746187e+00
7.630000000000000000e+02 3.319650311599250392e-01
7.640000000000000000e+02 4.991804320680345297e-01
7.650000000000000000e+02 2.478999850238541747e+00
7.660000000000000000e+02 3.015704074465910267e+00
7.670000000000000000e+02 7.162188369632874752e-01
7.680000000000000000e+02 1.507870514623519620e+00
7.690000000000000000e+02 1.976316075088156765e+00
7.700000000000000000e+02 1.293796606928046655e+00
7.710000000000000000e+02 5.796466434349751840e-01
7.720000000000000000e+02 2.772514461729959634e-01
7.730000000000000000e+02 4.545811802531453394e-02
7.740000000000000000e+02 3.370611713337441362e-01
7.750000000000000000e+02 7.077804976146002680e-01
7.760000000000000000e+02 1.264536138531551501e-01
7.770000000000000000e+02 5.003482445550722080e-01
7.780000000000000000e+02 1.493259047915373172e-01
7.790000000000000000e+02 1.929421590431052436e-01
7.800000000000000000e+02 9.354511572287877996e-01
7.810000000000000000e+02 7.085088742999370304e-01
7.820000000000000000e+02 7.058581078390745445e-01
7.830000000000000000e+02 3.255752032773424620e-01
7.840000000000000000e+02 6.821275523749875669e-01
7.850000000000000000e+02 6.014691613438667428e-01
7.860000000000000000e+02 1.370294343744771770e-01
7.870000000000000000e+02 4.407850860507286916e-02
7.880000000000000000e+02 2.637153148071308406e-01
7.890000000000000000e+02 4.786324870358609207e-01
7.900000000000000000e+02 7.705454225264651846e-01
7.910000000000000000e+02 4.581508475419919790e-01
7.920000000000000000e+02 5.204477226716521798e-01
7.930000000000000000e+02 5.776927123003571252e-01
7.940000000000000000e+02 3.108728514830956802e-01
7.950000000000000000e+02 7.443757125077884451e-01
7.960000000000000000e+02 1.738717815598424643e+00
7.970000000000000000e+02 7.890939369594320851e-01
7.980000000000000000e+02 5.945225473967346019e-01
7.990000000000000000e+02 8.354624710641158636e-01
8.000000000000000000e+02 1.248318629744855857e+00
8.010000000000000000e+02 1.376634240406551246e+00
8.020000000000000000e+02 1.279427591163648348e+00
8.030000000000000000e+02 5.684970392034986997e-01
8.040000000000000000e+02 4.354197050404292058e-01
8.050000000000000000e+02 1.671579863749435901e+00
8.060000000000000000e+02 1.875517259282332594e+00
8.070000000000000000e+02 5.821688964944777833e-01
8.080000000000000000e+02 1.279017197013709417e+00
8.090000000000000000e+02 1.098932678904792404e+00
8.100000000000000000e+02 3.301548375855648532e-01
8.110000000000000000e+02 1.556712780174246191e+00
8.120000000000000000e+02 1.673203525824477733e+00
8.130000000000000000e+02 1.029043087118860722e+00
8.140000000000000000e+02 1.826244340107890274e+00
8.150000000000000000e+02 2.248204214893142705e+00
8.160000000000000000e+02 3.175372204928772479e-02
8.170000000000000000e+02 1.609975059323737412e+00
8.180000000000000000e+02 2.302125026135665387e+00
8.190000000000000000e+02 1.478892146857456291e+00
8.200000000000000000e+02 1.436038818709781673e+00
8.210000000000000000e+02 2.203710449284381756e+00
8.220000000000000000e+02 2.011832855631621619e+00
8.230000000000000000e+02 1.762620880522712818e+00
8.240000000000000000e+02 2.067702207425845096e+00
8.250000000000000000e+02 8.961402978635206740e-01
8.260000000000000000e+02 1.407647640945892231e+00
8.270000000000000000e+02 2.357632948350969482e+00
8.280000000000000000e+02 3.089925257622920363e+00
8.290000000000000000e+02 3.339635577058661653e+00
8.300000000000000000e+02 4.488464107032127393e-01
8.310000000000000000e+02 2.084215393612619760e+00
8.320000000000000000e+02 1.811424423148715546e+00
8.330000000000000000e+02 3.054143255963545744e+00
8.340000000000000000e+02 2.011888776648573351e+00
8.350000000000000000e+02 3.690981809045360551e-01
8.360000000000000000e+02 1.781429920348502227e+00
8.370000000000000000e+02 1.900907628784705761e+00
8.380000000000000000e+02 5.246931713337558145e-01
8.390000000000000000e+02 1.329886462767045696e+00
8.400000000000000000e+02 1.813243570924927495e+00
8.410000000000000000e+02 1.786446535158680682e+00
8.420000000000000000e+02 1.513831591993356707e+00
8.430000000000000000e+02 1.583169457901305810e+00
8.440000000000000000e+02 2.703280111802489838e+00
8.450000000000000000e+02 1.272815703173630686e+00
8.460000000000000000e+02 2.761640517734931688e+00
8.470000000000000000e+02 1.949784508193288302e+00
8.480000000000000000e+02 2.532003181497643585e+00
8.490000000000000000e+02 3.114659401783805848e+00
8.500000000000000000e+02 2.456952980087137917e+00
8.510000000000000000e+02 3.282649371084837231e+00
8.520000000000000000e+02 2.516181007467344521e+00
8.530000000000000000e+02 1.809871946069286253e+00
8.540000000000000000e+02 2.798234041070324807e+00
8.550000000000000000e+02 2.592504748599868236e+00
8.560000000000000000e+02 1.729711491599250417e+00
8.570000000000000000e+02 1.361666220655329163e+00
8.580000000000000000e+02 1.357559546359688118e+00
8.590000000000000000e+02 1.902926401991285488e+00
8.600000000000000000e+02 1.503502685192867228e+00
8.610000000000000000e+02 2.419682001244570113e+00
8.620000000000000000e+02 3.347809565857707614e+00
8.630000000000000000e+02 3.193270517420152999e+00
8.640000000000000000e+02 2.981342711885505370e+00
8.650000000000000000e+02 3.644031280647168192e+00
8.660000000000000000e+02 3.895686148486102507e+00
8.670000000000000000e+02 3.023920164281265421e+00
8.680000000000000000e+02 3.058907067205971497e+00
8.690000000000000000e+02 6.038008444421434362e+00
8.700000000000000000e+02 6.456605163036715389e+00
8.710000000000000000e+02 7.156510421489311824e+00
8.720000000000000000e+02 9.417284093549062263e+00
8.730000000000000000e+02 9.495727419415064929e+00
8.740000000000000000e+02 8.093843114499058800e+00
8.750000000000000000e+02 9.462141019083182059e+00
8.760000000000000000e+02 1.012838713959759041e+01
8.770000000000000000e+02 1.119373784069692590e+01
8.780000000000000000e+02 1.298289186683260432e+01
8.790000000000000000e+02 1.426543358224434144e+01
8.800000000000000000e+02 1.499573079029244482e+01
8.810000000000000000e+02 1.665232789670191949e+01
8.820000000000000000e+02 1.820818296204105735e+01
8.830000000000000000e+02 1.620095055590133626e+01
8.840000000000000000e+02 1.127137597179010697e+01
8.850000000000000000e+02 9.472224323376893906e+00
8.860000000000000000e+02 7.782288377644226429e+00
8.870000000000000000e+02 4.119918598008666777e+00
8.880000000000000000e+02 2.376835759178606899e+00
8.890000000000000000e+02 3.812342580257117142e+00
8.900000000000000000e+02 5.166926088570829023e+00
8.910000000000000000e+02 4.354537517112669676e+00
8.920000000000000000e+02 3.117833258606410585e+00
8.930000000000000000e+02 1.554068371292299133e+00
8.940000000000000000e+02 1.671512694046820124e+00
8.950000000000000000e+02 3.014858350062206149e+00
8.960000000000000000e+02 2.672950716863727205e+00
8.970000000000000000e+02 3.011619136693620913e+00
8.980000000000000000e+02 2.941016305953129795e+00
8.990000000000000000e+02 2.137192285832823391e+00
9.000000000000000000e+02 1.790360563783443437e+00
9.010000000000000000e+02 2.819817302426897765e+00
9.020000000000000000e+02 3.562172858120713492e+00
9.030000000000000000e+02 2.724707422111591448e+00
9.040000000000000000e+02 2.370219747147901401e+00
9.050000000000000000e+02 2.478412666459265612e+00
9.060000000000000000e+02 4.004284207840732357e+00
9.070000000000000000e+02 2.299814910599542905e+00
9.080000000000000000e+02 2.343862814976073405e+00
9.090000000000000000e+02 3.086277237087740044e+00
9.100000000000000000e+02 2.896993731798386040e+00
9.110000000000000000e+02 2.560946980294594777e+00
9.120000000000000000e+02 1.570527860638738282e+00
9.130000000000000000e+02 1.919848281269426860e+00
9.140000000000000000e+02 2.992624955818279808e+00
9.150000000000000000e+02 2.926569633347162913e+00
9.160000000000000000e+02 3.165179853764780837e+00
9.170000000000000000e+02 3.994441295166978545e+00
9.180000000000000000e+02 3.789493760265430389e+00
9.190000000000000000e+02 2.427560501555677597e+00
9.200000000000000000e+02 2.277696514623523072e+00
9.210000000000000000e+02 2.406720401493170236e+00
9.220000000000000000e+02 6.017627598007857515e-01
9.230000000000000000e+02 1.637583760423254375e+00
9.240000000000000000e+02 1.869339412691861213e+00
9.250000000000000000e+02 2.232133247044091107e+00
9.260000000000000000e+02 3.402007676415709891e+00
9.270000000000000000e+02 2.926147113254512266e+00
9.280000000000000000e+02 3.099936183571857296e+00
9.290000000000000000e+02 3.672152051856465427e+00
9.300000000000000000e+02 2.754022703381045822e+00
9.310000000000000000e+02 1.762131594689901215e+00
9.320000000000000000e+02 1.701424334785312187e+00
9.330000000000000000e+02 1.902232639701304295e+00
9.340000000000000000e+02 2.866693666044423328e+00
9.350000000000000000e+02 4.137297945861852178e+00
9.360000000000000000e+02 2.563618584111137633e+00
9.370000000000000000e+02 3.237707459240855012e+00
9.380000000000000000e+02 2.552008474699281049e+00
9.390000000000000000e+02 2.579317723916222160e+00
9.400000000000000000e+02 2.980820830740525729e+00
9.410000000000000000e+02 3.459118994608068931e+00
9.420000000000000000e+02 4.271125941505877321e+00
9.430000000000000000e+02 4.742184721841964823e+00
9.440000000000000000e+02 3.403769639361180488e+00
9.450000000000000000e+02 1.341276978427724309e+00
9.460000000000000000e+02 2.335481220908509403e+00
9.470000000000000000e+02 2.599092688925755734e+00
9.480000000000000000e+02 3.140570095830751640e+00
9.490000000000000000e+02 3.959378554449290988e+00
9.500000000000000000e+02 2.779014710493486806e+00
9.510000000000000000e+02 4.628599004355512525e-01
9.520000000000000000e+02 2.289566646338963007e+00
9.530000000000000000e+02 2.965969365276863723e+00
9.540000000000000000e+02 1.015407656502752998e+00
9.550000000000000000e+02 1.616085376477987001e-01
9.560000000000000000e+02 2.077848661481111137e+00
9.570000000000000000e+02 2.720698127566854918e+00
9.580000000000000000e+02 1.996669178593658778e+00
9.590000000000000000e+02 2.372141763741958176e+00
9.600000000000000000e+02 2.387744323584321204e+00
9.610000000000000000e+02 1.974753231279810173e+00
9.620000000000000000e+02 8.717660340178345901e-01
9.630000000000000000e+02 2.877489344326912946e+00
9.640000000000000000e+02 1.856661523957677362e+00
9.650000000000000000e+02 1.125256034847559761e+00
9.660000000000000000e+02 1.983727147064934471e+00
9.670000000000000000e+02 1.937043538987958780e+00
9.680000000000000000e+02 1.163996178386270675e+00
9.690000000000000000e+02 2.891489236465460078e+00
9.700000000000000000e+02 1.471177563251750309e+00
9.710000000000000000e+02 8.261070993569716858e-01
9.720000000000000000e+02 4.452929147820031686e-01
9.730000000000000000e+02 2.937902791372768996e-01
9.740000000000000000e+02 2.935160597386350934e-01
9.750000000000000000e+02 1.293768116573328908e-01
9.760000000000000000e+02 1.149966905433448483e+00
9.770000000000000000e+02 2.252339850445965741e+00
9.780000000000000000e+02 4.848463049284990056e-02
9.790000000000000000e+02 6.685153802115643140e-01
9.800000000000000000e+02 1.045475317568974383e+00
9.810000000000000000e+02 1.904839048952502445e+00
9.820000000000000000e+02 6.774016789902350677e-01
9.830000000000000000e+02 4.196880466919707398e-01
9.840000000000000000e+02 1.531470550923052398e+00
9.850000000000000000e+02 6.559363003526205160e-01
9.860000000000000000e+02 5.169474998962846346e-01
9.870000000000000000e+02 1.854377660858738341e+00
9.880000000000000000e+02 5.598120211574355576e-01
9.890000000000000000e+02 1.198628665629535295e+00
9.900000000000000000e+02 6.412098377930059989e-01
9.910000000000000000e+02 5.240252074258435755e-01
9.920000000000000000e+02 4.142968083385228373e-01
9.930000000000000000e+02 1.081780052260433278e+00
9.940000000000000000e+02 2.280426191454062224e+00
9.950000000000000000e+02 1.008839951877195551e+00
9.960000000000000000e+02 7.156386379095829309e-01
9.970000000000000000e+02 4.699897896701965005e-01
9.980000000000000000e+02 1.888126948765886104e-01
9.990000000000000000e+02 6.606655002073612559e-01
1.000000000000000000e+03 5.297272334508904557e-01
1.001000000000000000e+03 6.965190705394155302e-01
1.002000000000000000e+03 1.085309145228219529e+00
1.003000000000000000e+03 8.373437136929485769e-01
1.004000000000000000e+03 2.075362738588843459e-01
1.005000000000000000e+03 5.188709999999999711e-01
1.006000000000000000e+03 1.683591618257003208e-01
1.007000000000000000e+03 8.942260394190839623e-01
1.008000000000000000e+03 6.169385352696565850e-01
1.009000000000000000e+03 1.213625290456422423e+00
1.010000000000000000e+03 5.744828419917073076e-02
1.011000000000000000e+03 6.384092863070696122e-01
1.012000000000000000e+03 1.790720502074715670e+00
1.013000000000000000e+03 3.353474419087113301e+00
1.014000000000000000e+03 1.427679666666590075e+00
1.015000000000000000e+03 1.110565562240659832e+00
1.016000000000000000e+03 1.677366761410764795e+00
1.017000000000000000e+03 2.271839284232364697e+00
1.018000000000000000e+03 3.700957968944043941e+00
1.019000000000000000e+03 5.199488240663896477e+00
1.020000000000000000e+03 4.774278813278037603e+00
1.021000000000000000e+03 4.139368941908736943e+00
1.022000000000000000e+03 5.824943478260864893e+00
1.023000000000000000e+03 5.494532470954386127e+00
1.024000000000000000e+03 5.383738387966804595e+00
1.025000000000000000e+03 4.649058697095467707e+00
1.026000000000000000e+03 5.887333503105703691e+00
1.027000000000000000e+03 7.921787203319466286e+00
1.028000000000000000e+03 9.198135962655472397e+00
1.029000000000000000e+03 1.049124634854771720e+01
1.030000000000000000e+03 9.269198373443911620e+00
1.031000000000000000e+03 8.929658931535231048e+00
1.032000000000000000e+03 1.169276454356845640e+01
1.033000000000000000e+03 1.119715541493775213e+01
1.034000000000000000e+03 1.228603262939968310e+01
1.035000000000000000e+03 1.188653107883826721e+01
1.036000000000000000e+03 1.084852995850623181e+01
1.037000000000000000e+03 1.242647684647324624e+01
1.038000000000000000e+03 1.491375692946044396e+01
1.039000000000000000e+03 1.640739182572612265e+01
1.040000000000000000e+03 1.877533753112045289e+01
1.041000000000000000e+03 2.043069686721989342e+01
1.042000000000000000e+03 1.909392363070548981e+01
1.043000000000000000e+03 2.033634082815741451e+01
1.044000000000000000e+03 2.135728680497926391e+01
1.045000000000000000e+03 2.171677842323646246e+01
1.046000000000000000e+03 2.395672398340242637e+01
1.047000000000000000e+03 2.685005439834030483e+01
1.048000000000000000e+03 2.786115668049773930e+01
1.049000000000000000e+03 2.960603172199167332e+01
1.050000000000000000e+03 3.050819217842328257e+01
1.051000000000000000e+03 3.445323024896269715e+01
1.052000000000000000e+03 3.609663365145223679e+01
1.053000000000000000e+03 3.794279684647302275e+01
1.054000000000000000e+03 4.250591954356879398e+01
1.055000000000000000e+03 4.478608360248452414e+01
1.056000000000000000e+03 4.601538302904553035e+01
1.057000000000000000e+03 5.335630703319530710e+01
1.058000000000000000e+03 6.094319672199230808e+01
1.059000000000000000e+03 6.406770751552767251e+01
1.060000000000000000e+03 6.842315875518677615e+01
1.061000000000000000e+03 7.336592107883868152e+01
1.062000000000000000e+03 8.194169551867130963e+01
1.063000000000000000e+03 9.030106312629381193e+01
1.064000000000000000e+03 9.820715740663946747e+01
1.065000000000000000e+03 1.088522470954357999e+02
1.066000000000000000e+03 1.204258475103729751e+02
1.067000000000000000e+03 1.300674275933610602e+02
1.068000000000000000e+03 1.439564286307065117e+02
1.069000000000000000e+03 1.546820829875510128e+02
1.070000000000000000e+03 1.703668999999997027e+02
1.071000000000000000e+03 1.842379788381748540e+02
1.072000000000000000e+03 2.063748975155254470e+02
1.073000000000000000e+03 2.280507435684639574e+02
1.074000000000000000e+03 2.494108821576768378e+02
1.075000000000000000e+03 2.736190199170142705e+02
1.076000000000000000e+03 2.970069784232349548e+02
1.077000000000000000e+03 3.245154290456430886e+02
1.078000000000000000e+03 3.609461029045667146e+02
1.079000000000000000e+03 4.080819502074692195e+02
1.080000000000000000e+03 4.704010267634836850e+02
1.081000000000000000e+03 5.507167622406670944e+02
1.082000000000000000e+03 6.627766288381862978e+02
1.083000000000000000e+03 8.053032792531010955e+02
1.084000000000000000e+03 9.810257120082833353e+02
1.085000000000000000e+03 1.190415614107899501e+03
1.086000000000000000e+03 1.422632024896242228e+03
1.087000000000000000e+03 1.671189879668041385e+03
1.088000000000000000e+03 1.924295074688803425e+03
1.089000000000000000e+03 2.189924180497942871e+03
1.090000000000000000e+03 2.514814641078817203e+03
1.091000000000000000e+03 2.922982721991702874e+03
1.092000000000000000e+03 3.398222937759368506e+03
1.093000000000000000e+03 3.978575734439782991e+03
1.094000000000000000e+03 4.591315265560155240e+03
1.095000000000000000e+03 5.098270875518691355e+03
1.096000000000000000e+03 5.382649178423251215e+03
1.097000000000000000e+03 5.292181794605819050e+03
1.098000000000000000e+03 4.806585491701233877e+03
1.099000000000000000e+03 4.009057821576695460e+03
1.100000000000000000e+03 3.035953317427466118e+03
1.101000000000000000e+03 2.168107136929463195e+03
1.102000000000000000e+03 1.504500419087106820e+03
1.103000000000000000e+03 1.043707408713673431e+03
1.104000000000000000e+03 7.388106261410907791e+02
1.105000000000000000e+03 5.365151024844690255e+02
1.106000000000000000e+03 4.094587165975007110e+02
1.107000000000000000e+03 3.211439981327857254e+02
1.108000000000000000e+03 2.531999064315359931e+02
1.109000000000000000e+03 2.029853714285685840e+02
1.110000000000000000e+03 1.673638639004164190e+02
1.111000000000000000e+03 1.417814576763493619e+02
1.112000000000000000e+03 1.211206792531115326e+02
1.113000000000000000e+03 1.006909198132759258e+02
1.114000000000000000e+03 8.331781802904639278e+01
1.115000000000000000e+03 7.198472363070537483e+01
1.116000000000000000e+03 6.410113342323602126e+01
1.117000000000000000e+03 5.649164545643225921e+01
1.118000000000000000e+03 4.952740273858935893e+01
1.119000000000000000e+03 4.224000041493747659e+01
1.120000000000000000e+03 3.584421597510382895e+01
1.121000000000000000e+03 3.292214095435702603e+01
1.122000000000000000e+03 2.685148452282144049e+01
1.123000000000000000e+03 2.436696446058093102e+01
1.124000000000000000e+03 2.105955462655662203e+01
1.125000000000000000e+03 1.701921321576769586e+01
1.126000000000000000e+03 1.577254535269701385e+01
1.127000000000000000e+03 1.393457373444003267e+01
1.128000000000000000e+03 1.179598784232386421e+01
1.129000000000000000e+03 8.363025489626549458e+00
1.130000000000000000e+03 8.267125941908689768e+00
1.131000000000000000e+03 6.880534487551935641e+00
1.132000000000000000e+03 6.833378271784230407e+00
1.133000000000000000e+03 5.099751802904449960e+00
1.134000000000000000e+03 5.346066362318820708e+00
1.135000000000000000e+03 4.155271157676503790e+00
1.136000000000000000e+03 2.384406991701261802e+00
1.137000000000000000e+03 3.196414443983400577e+00
1.138000000000000000e+03 2.180315881987662685e+00
1.139000000000000000e+03 8.090124190871355037e-01
1.140000000000000000e+03 1.535344614107913008e+00
1.141000000000000000e+03 1.879272697095383471e+00
1.142000000000000000e+03 2.106243502074715668e+00
1.143000000000000000e+03 8.072222531121177047e-01
1.144000000000000000e+03 7.133221828837577050e-01
1.145000000000000000e+03 1.570951958506087820e+00
1.146000000000000000e+03 1.433333580912877547e+00
1.147000000000000000e+03 7.064837655603064537e-01
1.148000000000000000e+03 1.717087464730283397e+00
1.149000000000000000e+03 8.788838381743203643e-01
1.150000000000000000e+03 6.543180186722202807e-01
1.151000000000000000e+03 3.531209211618412391e-01
1.152000000000000000e+03 1.942506228215695518e+00
1.153000000000000000e+03 6.427925933609808240e-01
1.154000000000000000e+03 1.753529438923463468e+00
1.155000000000000000e+03 2.290276574688841826e+00
1.156000000000000000e+03 1.039389178423259619e+00
1.157000000000000000e+03 3.110975103734512498e-02
1.158000000000000000e+03 1.392655346203457434e-01
1.159000000000000000e+03 9.567733941908251882e-01
1.160000000000000000e+03 1.316839112033160841e+00
1.161000000000000000e+03 3.974840414938288768e-01
1.162000000000000000e+03 1.849809286307009470e+00
1.163000000000000000e+03 7.577213354037344306e-01
1.164000000000000000e+03 1.329464253111927730e-01
1.165000000000000000e+03 1.439225433609847560e+00
1.166000000000000000e+03 6.328648070539922843e-01
1.167000000000000000e+03 8.641212697095014272e-01
1.168000000000000000e+03 1.999745601659765892e-01
1.169000000000000000e+03 8.027927550622612762e-02
1.170000000000000000e+03 9.777753187966652104e-02
1.171000000000000000e+03 3.199933589211652052e-01
1.172000000000000000e+03 2.359732095435984611e-01
1.173000000000000000e+03 2.112041048091052309e-01
1.174000000000000000e+03 1.290236168049821330e+00
1.175000000000000000e+03 1.661638209109731035e+00
1.176000000000000000e+03 1.277542804979289182e+00
1.177000000000000000e+03 3.635458091286286608e-01
1.178000000000000000e+03 5.606319128630556925e-01
1.179000000000000000e+03 5.774876887966149397e-01
1.180000000000000000e+03 1.246121529045639997e+00
1.181000000000000000e+03 1.466981290456463194e+00
1.182000000000000000e+03 2.052526398340274838e+00
1.183000000000000000e+03 2.522076447204901317e+00
1.184000000000000000e+03 3.001409713692921422e+00
1.185000000000000000e+03 1.825811817427338779e+00
1.186000000000000000e+03 1.760473369294582424e+00
1.187000000000000000e+03 2.156689576763473060e+00
1.188000000000000000e+03 2.887959120331996310e+00
1.189000000000000000e+03 3.618317728215755480e+00
1.190000000000000000e+03 1.791723755186860112e+00
1.191000000000000000e+03 1.859417080912892262e+00
1.192000000000000000e+03 3.410066138716438378e+00
1.193000000000000000e+03 4.034215410788335454e+00
1.194000000000000000e+03 3.565502099585082796e+00
1.195000000000000000e+03 1.938951713692988577e+00
1.196000000000000000e+03 2.879392170124404959e+00
1.197000000000000000e+03 3.521345087136923624e+00
1.198000000000000000e+03 3.728939943983425209e+00
1.199000000000000000e+03 4.863510417012562037e+00
1.200000000000000000e+03 5.907650912863045001e+00
1.201000000000000000e+03 5.084643755186712966e+00
1.202000000000000000e+03 4.407285896265550562e+00
1.203000000000000000e+03 3.843061639004172303e+00
1.204000000000000000e+03 4.825518952380896565e+00
1.205000000000000000e+03 4.819800871369183781e+00
1.206000000000000000e+03 2.686423887966672197e+00
1.207000000000000000e+03 3.177791740663836961e+00
1.208000000000000000e+03 4.467970486542443886e+00
1.209000000000000000e+03 4.261683526970995395e+00
1.210000000000000000e+03 4.880192651452206043e+00
1.211000000000000000e+03 5.598621199170140450e+00
1.212000000000000000e+03 4.131975919254589513e+00
1.213000000000000000e+03 3.790282730290460922e+00
1.214000000000000000e+03 3.231731529045671181e+00
1.215000000000000000e+03 4.598806327800868843e+00
1.216000000000000000e+03 4.955866443983287795e+00
1.217000000000000000e+03 3.633253029045702576e+00
1.218000000000000000e+03 3.649606311203311915e+00
1.219000000000000000e+03 3.249266365145135893e+00
1.220000000000000000e+03 9.427514937758296742e-01
1.221000000000000000e+03 2.573945657676316667e+00
1.222000000000000000e+03 3.249401008298773874e+00
1.223000000000000000e+03 3.618937122406581164e+00
1.224000000000000000e+03 2.659378520746930707e+00
1.225000000000000000e+03 2.602079780082989124e+00
1.226000000000000000e+03 2.702160721991715420e+00
1.227000000000000000e+03 3.149777348547727396e+00
1.228000000000000000e+03 2.807677153527013303e+00
1.229000000000000000e+03 2.269545547717837675e+00
1.230000000000000000e+03 2.097169400414901297e+00
1.231000000000000000e+03 2.349532520746840714e+00
1.232000000000000000e+03 3.155260363070537366e+00
1.233000000000000000e+03 3.399054521739130585e+00
1.234000000000000000e+03 2.981235269709583413e+00
1.235000000000000000e+03 2.336079352697078448e+00
1.236000000000000000e+03 3.122258626556027927e+00
1.237000000000000000e+03 3.249458440993810093e+00
1.238000000000000000e+03 3.806999763485472421e+00
1.239000000000000000e+03 2.620270045643142254e+00
1.240000000000000000e+03 3.431633207469019009e+00
1.241000000000000000e+03 3.387711710145056454e+00
1.242000000000000000e+03 2.829273746887963181e+00
1.243000000000000000e+03 2.389142269709472188e+00
1.244000000000000000e+03 2.071868829875480156e+00
1.245000000000000000e+03 2.568150153526981949e+00
1.246000000000000000e+03 2.230347987551867917e+00
1.247000000000000000e+03 2.635181865145235225e+00
1.248000000000000000e+03 1.931892838174144922e+00
1.249000000000000000e+03 3.547903396265560172e+00
1.250000000000000000e+03 3.067048842323573776e+00
1.251000000000000000e+03 1.756440701244912139e+00
1.252000000000000000e+03 1.217029435684650274e+00
1.253000000000000000e+03 1.337130016597515736e+00
1.254000000000000000e+03 1.630504809128629828e+00
1.255000000000000000e+03 1.410986585062280696e+00
1.256000000000000000e+03 4.037514792531173291e-01
1.257000000000000000e+03 4.181147924701934526e-01
1.258000000000000000e+03 1.330390398340235425e+00
1.259000000000000000e+03 1.219355219917013011e+00
1.260000000000000000e+03 1.500692344398354416e+00
1.261000000000000000e+03 1.956777103734467005e+00
1.262000000000000000e+03 1.681110082987579135e+00
1.263000000000000000e+03 1.342970943983407661e+00
1.264000000000000000e+03 2.181200748962768277e+00
1.265000000000000000e+03 3.634525751037374963e+00
1.266000000000000000e+03 1.406834057971087848e+00
1.267000000000000000e+03 1.010375701244861313e+00
1.268000000000000000e+03 1.324267609958507785e+00
1.269000000000000000e+03 5.656441369295253097e-01
1.270000000000000000e+03 5.416240175155589975e-02
1.271000000000000000e+03 9.171898485479077490e-01
1.272000000000000000e+03 1.878863518672207800e+00
1.273000000000000000e+03 1.013615342323668012e+00
1.274000000000000000e+03 4.529344170124294244e-01
1.275000000000000000e+03 3.135956804978976553e-01
1.276000000000000000e+03 4.286869709543789653e-01
1.277000000000000000e+03 7.498472614109324974e-02
1.278000000000000000e+03 0.000000000000000000e+00
1.279000000000000000e+03 0.000000000000000000e+00
1.280000000000000000e+03 0.000000000000000000e+00
1.281000000000000000e+03 0.000000000000000000e+00
1.282000000000000000e+03 0.000000000000000000e+00
1.283000000000000000e+03 0.000000000000000000e+00
1.284000000000000000e+03 0.000000000000000000e+00
1.285000000000000000e+03 0.000000000000000000e+00
1.286000000000000000e+03 0.000000000000000000e+00
1.287000000000000000e+03 0.000000000000000000e+00
1.288000000000000000e+03 0.000000000000000000e+00
1.289000000000000000e+03 0.000000000000000000e+00
1.290000000000000000e+03 0.000000000000000000e+00
1.291000000000000000e+03 0.000000000000000000e+00
1.292000000000000000e+03 0.000000000000000000e+00
1.293000000000000000e+03 0.000000000000000000e+00
1.294000000000000000e+03 0.000000000000000000e+00
1.295000000000000000e+03 0.000000000000000000e+00
1.296000000000000000e+03 0.000000000000000000e+00
1.297000000000000000e+03 0.000000000000000000e+00
1.298000000000000000e+03 0.000000000000000000e+00
1.299000000000000000e+03 0.000000000000000000e+00
1.300000000000000000e+03 0.000000000000000000e+00
1.301000000000000000e+03 0.000000000000000000e+00
1.302000000000000000e+03 0.000000000000000000e+00
1.303000000000000000e+03 0.000000000000000000e+00
1.304000000000000000e+03 0.000000000000000000e+00
1.305000000000000000e+03 0.000000000000000000e+00
1.306000000000000000e+03 0.000000000000000000e+00
1.307000000000000000e+03 0.000000000000000000e+00
1.308000000000000000e+03 0.000000000000000000e+00
1.309000000000000000e+03 0.000000000000000000e+00
1.310000000000000000e+03 0.000000000000000000e+00
1.311000000000000000e+03 0.000000000000000000e+00
1.312000000000000000e+03 0.000000000000000000e+00
1.313000000000000000e+03 0.000000000000000000e+00
1.314000000000000000e+03 0.000000000000000000e+00
1.315000000000000000e+03 0.000000000000000000e+00
1.316000000000000000e+03 0.000000000000000000e+00
1.317000000000000000e+03 0.000000000000000000e+00
1.318000000000000000e+03 0.000000000000000000e+00
1.319000000000000000e+03 0.000000000000000000e+00
1.320000000000000000e+03 0.000000000000000000e+00
1.321000000000000000e+03 0.000000000000000000e+00
1.322000000000000000e+03 0.000000000000000000e+00
1.323000000000000000e+03 0.000000000000000000e+00
1.324000000000000000e+03 0.000000000000000000e+00
1.325000000000000000e+03 0.000000000000000000e+00
1.326000000000000000e+03 0.000000000000000000e+00
1.327000000000000000e+03 0.000000000000000000e+00
1.328000000000000000e+03 0.000000000000000000e+00
1.329000000000000000e+03 0.000000000000000000e+00
1.330000000000000000e+03 0.000000000000000000e+00
1.331000000000000000e+03 0.000000000000000000e+00
1.332000000000000000e+03 0.000000000000000000e+00
1.333000000000000000e+03 0.000000000000000000e+00
1.334000000000000000e+03 0.000000000000000000e+00
1.335000000000000000e+03 0.000000000000000000e+00
1.336000000000000000e+03 0.000000000000000000e+00
1.337000000000000000e+03 0.000000000000000000e+00
1.338000000000000000e+03 0.000000000000000000e+00
1.339000000000000000e+03 0.000000000000000000e+00
1.340000000000000000e+03 0.000000000000000000e+00
1.341000000000000000e+03 0.000000000000000000e+00
1.342000000000000000e+03 0.000000000000000000e+00
1.343000000000000000e+03 0.000000000000000000e+00
1.344000000000000000e+03 0.000000000000000000e+00
1.345000000000000000e+03 0.000000000000000000e+00
1.346000000000000000e+03 0.000000000000000000e+00
1.347000000000000000e+03 0.000000000000000000e+00
1.348000000000000000e+03 0.000000000000000000e+00
1.349000000000000000e+03 0.000000000000000000e+00
1.350000000000000000e+03 0.000000000000000000e+00
1.351000000000000000e+03 0.000000000000000000e+00
1.352000000000000000e+03 0.000000000000000000e+00
1.353000000000000000e+03 0.000000000000000000e+00
1.354000000000000000e+03 0.000000000000000000e+00
1.355000000000000000e+03 0.000000000000000000e+00
1.356000000000000000e+03 0.000000000000000000e+00
1.357000000000000000e+03 0.000000000000000000e+00
1.358000000000000000e+03 0.000000000000000000e+00
1.359000000000000000e+03 0.000000000000000000e+00
1.360000000000000000e+03 0.000000000000000000e+00
1.361000000000000000e+03 0.000000000000000000e+00
1.362000000000000000e+03 0.000000000000000000e+00
1.363000000000000000e+03 0.000000000000000000e+00
1.364000000000000000e+03 0.000000000000000000e+00
1.365000000000000000e+03 0.000000000000000000e+00
1.366000000000000000e+03 0.000000000000000000e+00
1.367000000000000000e+03 0.000000000000000000e+00
1.368000000000000000e+03 0.000000000000000000e+00
1.369000000000000000e+03 0.000000000000000000e+00
1.370000000000000000e+03 0.000000000000000000e+00
1.371000000000000000e+03 0.000000000000000000e+00
1.372000000000000000e+03 0.000000000000000000e+00
1.373000000000000000e+03 0.000000000000000000e+00
1.374000000000000000e+03 0.000000000000000000e+00
1.375000000000000000e+03 0.000000000000000000e+00
1.376000000000000000e+03 0.000000000000000000e+00
1.377000000000000000e+03 0.000000000000000000e+00
1.378000000000000000e+03 0.000000000000000000e+00
1.379000000000000000e+03 0.000000000000000000e+00
1.380000000000000000e+03 0.000000000000000000e+00
1.381000000000000000e+03 0.000000000000000000e+00
1.382000000000000000e+03 0.000000000000000000e+00
1.383000000000000000e+03 0.000000000000000000e+00
1.384000000000000000e+03 0.000000000000000000e+00
1.385000000000000000e+03 0.000000000000000000e+00
1.386000000000000000e+03 0.000000000000000000e+00
1.387000000000000000e+03 0.000000000000000000e+00
1.388000000000000000e+03 0.000000000000000000e+00
1.389000000000000000e+03 0.000000000000000000e+00
1.390000000000000000e+03 0.000000000000000000e+00
1.391000000000000000e+03 0.000000000000000000e+00
1.392000000000000000e+03 0.000000000000000000e+00
1.393000000000000000e+03 0.000000000000000000e+00
1.394000000000000000e+03 0.000000000000000000e+00
1.395000000000000000e+03 0.000000000000000000e+00
1.396000000000000000e+03 0.000000000000000000e+00
1.397000000000000000e+03 0.000000000000000000e+00
1.398000000000000000e+03 0.000000000000000000e+00
1.399000000000000000e+03 0.000000000000000000e+00
1.400000000000000000e+03 0.000000000000000000e+00
1.401000000000000000e+03 0.000000000000000000e+00
1.402000000000000000e+03 0.000000000000000000e+00
1.403000000000000000e+03 0.000000000000000000e+00
1.404000000000000000e+03 0.000000000000000000e+00
1.405000000000000000e+03 0.000000000000000000e+00
1.406000000000000000e+03 0.000000000000000000e+00
1.407000000000000000e+03 0.000000000000000000e+00
1.408000000000000000e+03 0.000000000000000000e+00
1.409000000000000000e+03 0.000000000000000000e+00
1.410000000000000000e+03 0.000000000000000000e+00
1.411000000000000000e+03 0.000000000000000000e+00
1.412000000000000000e+03 0.000000000000000000e+00
1.413000000000000000e+03 0.000000000000000000e+00
1.414000000000000000e+03 0.000000000000000000e+00
1.415000000000000000e+03 0.000000000000000000e+00
1.416000000000000000e+03 0.000000000000000000e+00
1.417000000000000000e+03 0.000000000000000000e+00
1.418000000000000000e+03 0.000000000000000000e+00
1.419000000000000000e+03 0.000000000000000000e+00
1.420000000000000000e+03 0.000000000000000000e+00
1.421000000000000000e+03 0.000000000000000000e+00
1.422000000000000000e+03 0.000000000000000000e+00
1.423000000000000000e+03 0.000000000000000000e+00
1.424000000000000000e+03 0.000000000000000000e+00
1.425000000000000000e+03 0.000000000000000000e+00
1.426000000000000000e+03 0.000000000000000000e+00
1.427000000000000000e+03 0.000000000000000000e+00
1.428000000000000000e+03 0.000000000000000000e+00
1.429000000000000000e+03 0.000000000000000000e+00
1.430000000000000000e+03 0.000000000000000000e+00
1.431000000000000000e+03 0.000000000000000000e+00
1.432000000000000000e+03 0.000000000000000000e+00
1.433000000000000000e+03 0.000000000000000000e+00
1.434000000000000000e+03 0.000000000000000000e+00
1.435000000000000000e+03 0.000000000000000000e+00
1.436000000000000000e+03 0.000000000000000000e+00
1.437000000000000000e+03 0.000000000000000000e+00
1.438000000000000000e+03 0.000000000000000000e+00
1.439000000000000000e+03 0.000000000000000000e+00
1.440000000000000000e+03 0.000000000000000000e+00
1.441000000000000000e+03 0.000000000000000000e+00
1.442000000000000000e+03 0.000000000000000000e+00
1.443000000000000000e+03 0.000000000000000000e+00
1.444000000000000000e+03 0.000000000000000000e+00
1.445000000000000000e+03 0.000000000000000000e+00
1.446000000000000000e+03 0.000000000000000000e+00
1.447000000000000000e+03 0.000000000000000000e+00
1.448000000000000000e+03 0.000000000000000000e+00
1.449000000000000000e+03 0.000000000000000000e+00
1.450000000000000000e+03 0.000000000000000000e+00
1.451000000000000000e+03 0.000000000000000000e+00
1.452000000000000000e+03 0.000000000000000000e+00
1.453000000000000000e+03 0.000000000000000000e+00
1.454000000000000000e+03 0.000000000000000000e+00
1.455000000000000000e+03 0.000000000000000000e+00
1.456000000000000000e+03 0.000000000000000000e+00
1.457000000000000000e+03 0.000000000000000000e+00
1.458000000000000000e+03 0.000000000000000000e+00
1.459000000000000000e+03 0.000000000000000000e+00
1.460000000000000000e+03 0.000000000000000000e+00
1.461000000000000000e+03 0.000000000000000000e+00
1.462000000000000000e+03 0.000000000000000000e+00
1.463000000000000000e+03 0.000000000000000000e+00
1.464000000000000000e+03 0.000000000000000000e+00
1.465000000000000000e+03 0.000000000000000000e+00
1.466000000000000000e+03 0.000000000000000000e+00
1.467000000000000000e+03 0.000000000000000000e+00
1.468000000000000000e+03 0.000000000000000000e+00
1.469000000000000000e+03 0.000000000000000000e+00
1.470000000000000000e+03 0.000000000000000000e+00
1.471000000000000000e+03 0.000000000000000000e+00
1.472000000000000000e+03 0.000000000000000000e+00
1.473000000000000000e+03 0.000000000000000000e+00
1.474000000000000000e+03 0.000000000000000000e+00
1.475000000000000000e+03 0.000000000000000000e+00
1.476000000000000000e+03 0.000000000000000000e+00
1.477000000000000000e+03 0.000000000000000000e+00
1.478000000000000000e+03 0.000000000000000000e+00
1.479000000000000000e+03 0.000000000000000000e+00
1.480000000000000000e+03 0.000000000000000000e+00
1.481000000000000000e+03 0.000000000000000000e+00
1.482000000000000000e+03 0.000000000000000000e+00
1.483000000000000000e+03 0.000000000000000000e+00
1.484000000000000000e+03 0.000000000000000000e+00
1.485000000000000000e+03 0.000000000000000000e+00
1.486000000000000000e+03 0.000000000000000000e+00
1.487000000000000000e+03 0.000000000000000000e+00
1.488000000000000000e+03 0.000000000000000000e+00
1.489000000000000000e+03 0.000000000000000000e+00
1.490000000000000000e+03 0.000000000000000000e+00
1.491000000000000000e+03 0.000000000000000000e+00
1.492000000000000000e+03 0.000000000000000000e+00
1.493000000000000000e+03 0.000000000000000000e+00
1.494000000000000000e+03 0.000000000000000000e+00
1.495000000000000000e+03 0.000000000000000000e+00
1.496000000000000000e+03 0.000000000000000000e+00
1.497000000000000000e+03 0.000000000000000000e+00
1.498000000000000000e+03 0.000000000000000000e+00
1.499000000000000000e+03 0.000000000000000000e+00
1.500000000000000000e+03 0.000000000000000000e+00
