1.010000000000000000e+02 0.000000000000000000e+00
1.020000000000000000e+02 0.000000000000000000e+00
1.030000000000000000e+02 0.000000000000000000e+00
1.040000000000000000e+02 0.000000000000000000e+00
1.050000000000000000e+02 0.000000000000000000e+00
1.060000000000000000e+02 0.000000000000000000e+00
1.070000000000000000e+02 0.000000000000000000e+00
1.080000000000000000e+02 0.000000000000000000e+00
1.090000000000000000e+02 0.000000000000000000e+00
1.100000000000000000e+02 0.000000000000000000e+00
1.110000000000000000e+02 0.000000000000000000e+00
1.120000000000000000e+02 0.000000000000000000e+00
1.130000000000000000e+02 0.000000000000000000e+00
1.140000000000000000e+02 0.000000000000000000e+00
1.150000000000000000e+02 0.000000000000000000e+00
1.160000000000000000e+02 0.000000000000000000e+00
1.170000000000000000e+02 0.000000000000000000e+00
1.180000000000000000e+02 0.000000000000000000e+00
1.190000000000000000e+02 0.000000000000000000e+00
1.200000000000000000e+02 0.000000000000000000e+00
1.210000000000000000e+02 0.000000000000000000e+00
1.220000000000000000e+02 0.000000000000000000e+00
1.230000000000000000e+02 0.000000000000000000e+00
1.240000000000000000e+02 0.000000000000000000e+00
1.250000000000000000e+02 0.000000000000000000e+00
1.260000000000000000e+02 0.000000000000000000e+00
1.270000000000000000e+02 0.000000000000000000e+00
1.280000000000000000e+02 0.000000000000000000e+00
1.290000000000000000e+02 0.000000000000000000e+00
1.300000000000000000e+02 0.000000000000000000e+00
1.310000000000000000e+02 0.000000000000000000e+00
1.320000000000000000e+02 0.000000000000000000e+00
1.330000000000000000e+02 0.000000000000000000e+00
1.340000000000000000e+02 0.000000000000000000e+00
1.350000000000000000e+02 0.000000000000000000e+00
1.360000000000000000e+02 0.000000000000000000e+00
1.370000000000000000e+02 0.000000000000000000e+00
1.380000000000000000e+02 0.000000000000000000e+00
1.390000000000000000e+02 0.000000000000000000e+00
1.400000000000000000e+02 0.000000000000000000e+00
1.410000000000000000e+02 0.000000000000000000e+00
1.420000000000000000e+02 0.000000000000000000e+00
1.430000000000000000e+02 0.000000000000000000e+00
1.440000000000000000e+02 0.000000000000000000e+00
1.450000000000000000e+02 0.000000000000000000e+00
1.460000000000000000e+02 0.000000000000000000e+00
1.470000000000000000e+02 0.000000000000000000e+00
1.480000000000000000e+02 0.000000000000000000e+00
1.490000000000000000e+02 0.000000000000000000e+00
1.500000000000000000e+02 0.000000000000000000e+00
1.510000000000000000e+02 0.000000000000000000e+00
1.520000000000000000e+02 0.000000000000000000e+00
1.530000000000000000e+02 0.000000000000000000e+00
1.540000000000000000e+02 0.000000000000000000e+00
1.550000000000000000e+02 0.000000000000000000e+00
1.560000000000000000e+02 0.000000000000000000e+00
1.570000000000000000e+02 0.000000000000000000e+00
1.580000000000000000e+02 0.000000000000000000e+00
1.590000000000000000e+02 0.000000000000000000e+00
1.600000000000000000e+02 0.000000000000000000e+00
1.610000000000000000e+02 0.000000000000000000e+00
1.620000000000000000e+02 0.000000000000000000e+00
1.630000000000000000e+02 0.000000000000000000e+00
1.640000000000000000e+02 1.825249415059096947e+01
1.650000000000000000e+02 1.215041195602541535e+01
1.660000000000000000e+02 1.356660578510689330e+00
1.670000000000000000e+02 1.312289128811449324e+01
1.680000000000000000e+02 4.516929417548309011e+00
1.690000000000000000e+02 2.507741920555956483e+01
1.700000000000000000e+02 3.638094752592258629e+01
1.710000000000000000e+02 1.113840060381662589e+01
1.720000000000000000e+02 2.902914364654633417e+01
1.730000000000000000e+02 8.809964597428393773e+00
1.740000000000000000e+02 3.457199924704425342e+01
1.750000000000000000e+02 1.761887824725167917e+01
1.760000000000000000e+02 1.860651759435922514e+01
1.770000000000000000e+02 2.058817693839505836e+01
1.780000000000000000e+02 3.421350845467750901e+01
1.790000000000000000e+02 3.894260537951053891e+01
1.800000000000000000e+02 5.010962883841517623e+01
1.810000000000000000e+02 4.873826851275651251e+01
1.820000000000000000e+02 3.673998069695097968e+01
1.830000000000000000e+02 5.986063243517934751e+01
1.840000000000000000e+02 6.207536535780958786e+01
1.850000000000000000e+02 6.888522529558181873e+01
1.860000000000000000e+02 6.644656971375235344e+01
1.870000000000000000e+02 5.449370930304900895e+01
1.880000000000000000e+02 4.573211359054138114e+01
1.890000000000000000e+02 5.586303680149340778e+01
1.900000000000000000e+02 6.319948091474792307e+01
1.910000000000000000e+02 6.784588298070943324e+01
1.920000000000000000e+02 6.298368530595307391e+01
1.930000000000000000e+02 4.967405452509333941e+01
1.940000000000000000e+02 7.355627644057217651e+01
1.950000000000000000e+02 7.450558247666448608e+01
1.960000000000000000e+02 7.243718853142506475e+01
1.970000000000000000e+02 8.533604202447622811e+01
1.980000000000000000e+02 9.286152623522096405e+01
1.990000000000000000e+02 7.520999114499041127e+01
2.000000000000000000e+02 6.670522253889240005e+01
2.010000000000000000e+02 8.142789394523960311e+01
2.020000000000000000e+02 9.758018542418589902e+01
2.030000000000000000e+02 6.135298007259886077e+01
2.040000000000000000e+02 6.745877655258286154e+01
2.050000000000000000e+02 1.027502957685127711e+02
2.060000000000000000e+02 1.192335654843393087e+02
2.070000000000000000e+02 1.076610073221324768e+02
2.080000000000000000e+02 1.123808611906243442e+02
2.090000000000000000e+02 9.813126251400107947e+01
2.100000000000000000e+02 7.369426090833675858e+01
2.110000000000000000e+02 1.002799897739055979e+02
2.120000000000000000e+02 1.142949546567103027e+02
2.130000000000000000e+02 1.178160020738282867e+02
2.140000000000000000e+02 1.221034669570628353e+02
2.150000000000000000e+02 1.355736989836132409e+02
2.160000000000000000e+02 1.560910634591456017e+02
2.170000000000000000e+02 1.446983919726195609e+02
2.180000000000000000e+02 1.214385905413814157e+02
2.190000000000000000e+02 1.080354152426379812e+02
2.200000000000000000e+02 9.609461938187109808e+01
2.210000000000000000e+02 1.005877874403651759e+02
2.220000000000000000e+02 8.971646483717067611e+01
2.230000000000000000e+02 7.701774189794639369e+01
2.240000000000000000e+02 9.142140441194787570e+01
2.250000000000000000e+02 5.808296916614773409e+01
2.260000000000000000e+02 2.894466230864958334e+01
2.270000000000000000e+02 3.483061162380746367e+01
2.280000000000000000e+02 6.325321795892963905e+01
2.290000000000000000e+02 4.771004538892344726e+01
2.300000000000000000e+02 4.757576630029038256e+01
2.310000000000000000e+02 4.142371341837794319e+01
2.320000000000000000e+02 3.936248182327308598e+01
2.330000000000000000e+02 7.364408172335154745e+01
2.340000000000000000e+02 5.482821895457350081e+01
2.350000000000000000e+02 5.381902699854804695e+01
2.360000000000000000e+02 5.684246273179851272e+01
2.370000000000000000e+02 4.083242047915374684e+01
2.380000000000000000e+02 4.139610075295586000e+01
2.390000000000000000e+02 4.409858934038582845e+01
2.400000000000000000e+02 6.186902235013472051e+01
2.410000000000000000e+02 8.885735694461715184e+01
2.420000000000000000e+02 9.522042164903538719e+01
2.430000000000000000e+02 6.957877214270882860e+01
2.440000000000000000e+02 6.144166705455300104e+01
2.450000000000000000e+02 8.183759659406734954e+01
2.460000000000000000e+02 1.059687395146236071e+02
2.470000000000000000e+02 7.951802805227104898e+01
2.480000000000000000e+02 6.254697969508400490e+01
2.490000000000000000e+02 6.955350551545309656e+01
2.500000000000000000e+02 9.032584396308568842e+01
2.510000000000000000e+02 1.012027441194771313e+02
2.520000000000000000e+02 6.316202202862464787e+01
2.530000000000000000e+02 4.183617345914558427e+01
2.540000000000000000e+02 4.430748044181692791e+01
2.550000000000000000e+02 4.586503051026741673e+01
2.560000000000000000e+02 1.749050215470749947e+01
2.570000000000000000e+02 2.386601498651726416e+01
2.580000000000000000e+02 4.706944748599856609e+01
2.590000000000000000e+02 5.883918626296143373e+01
2.600000000000000000e+02 4.632945137523330459e+01
2.610000000000000000e+02 5.900992413814563520e+01
2.620000000000000000e+02 3.682374578095756590e+01
2.630000000000000000e+02 1.431969595519630545e+01
2.640000000000000000e+02 2.170615413814537220e+01
2.650000000000000000e+02 5.002716402613483382e+00
2.660000000000000000e+02 1.296593227649931279e+01
2.670000000000000000e+02 1.666850602613504861e+01
2.680000000000000000e+02 7.662339787595446872e+00
2.690000000000000000e+02 2.940691926571270898e+01
2.700000000000000000e+02 2.065127626011224748e+01
2.710000000000000000e+02 1.066424895540406936e+01
2.720000000000000000e+02 2.063557127359453247e+01
2.730000000000000000e+02 1.645015006222788756e+01
2.740000000000000000e+02 1.127011369010579145e+01
2.750000000000000000e+02 2.740732089193096499e+01
2.760000000000000000e+02 1.159929981003743116e+01
2.770000000000000000e+02 8.297829913710952354e+00
2.780000000000000000e+02 2.985360409458616360e+01
2.790000000000000000e+02 1.615495718788905632e+00
2.800000000000000000e+02 3.183583480813219779e+01
2.810000000000000000e+02 7.612047029033591627e+01
2.820000000000000000e+02 6.432933785729224496e+01
2.830000000000000000e+02 1.707940896701918376e+01
2.840000000000000000e+02 8.255887539610108661e+01
2.850000000000000000e+02 5.341901324414262575e+01
2.860000000000000000e+02 8.487108188757416372e+01
2.870000000000000000e+02 6.663562962256381184e+01
2.880000000000000000e+02 8.328656926571252939e+01
2.890000000000000000e+02 1.117867646297458037e+02
2.900000000000000000e+02 1.131717652354283956e+02
2.910000000000000000e+02 1.343414153287699833e+02
2.920000000000000000e+02 1.264826167392655805e+02
2.930000000000000000e+02 1.526084988176728530e+02
2.940000000000000000e+02 1.298941603194353718e+02
2.950000000000000000e+02 1.148969037336652832e+02
2.960000000000000000e+02 1.586307335615029217e+02
2.970000000000000000e+02 2.036360139390172321e+02
2.980000000000000000e+02 1.875496820369214106e+02
2.990000000000000000e+02 1.922951593030483650e+02
3.000000000000000000e+02 2.222745138767896549e+02
3.010000000000000000e+02 2.333064056627256662e+02
3.020000000000000000e+02 2.216494869943997230e+02
3.030000000000000000e+02 2.341158888404894469e+02
3.040000000000000000e+02 2.026184200746598094e+02
3.050000000000000000e+02 1.554737849616258529e+02
3.060000000000000000e+02 2.012273910392032406e+02
3.070000000000000000e+02 1.945152695147244515e+02
3.080000000000000000e+02 1.706864795685542333e+02
3.090000000000000000e+02 1.501923905828667500e+02
3.100000000000000000e+02 1.513504281211117188e+02
3.110000000000000000e+02 2.033900349719978635e+02
3.120000000000000000e+02 1.733807740302840159e+02
3.130000000000000000e+02 1.693591066777276808e+02
3.140000000000000000e+02 1.982640914125703375e+02
3.150000000000000000e+02 1.971021340385810845e+02
3.160000000000000000e+02 1.578312418170507954e+02
3.170000000000000000e+02 1.605355100394112071e+02
3.180000000000000000e+02 1.529337476664585154e+02
3.190000000000000000e+02 1.245432890894007159e+02
3.200000000000000000e+02 1.212773323584316358e+02
3.210000000000000000e+02 1.399112558805226740e+02
3.220000000000000000e+02 1.099507242024480576e+02
3.230000000000000000e+02 8.665000091889619682e+01
3.240000000000000000e+02 1.094700460485372702e+02
3.250000000000000000e+02 1.215597319850653548e+02
3.260000000000000000e+02 1.123220587844846250e+02
3.270000000000000000e+02 9.003367101431268793e+01
3.280000000000000000e+02 7.999160799211783512e+01
3.290000000000000000e+02 9.691662744243937766e+01
3.300000000000000000e+02 8.927688153878058586e+01
3.310000000000000000e+02 9.829703466293312886e+01
3.320000000000000000e+02 9.556896242895635396e+01
3.330000000000000000e+02 7.550224664454586332e+01
3.340000000000000000e+02 6.644976266957091582e+01
3.350000000000000000e+02 9.034118930719816376e+01
3.360000000000000000e+02 9.838708499999999901e+01
3.370000000000000000e+02 1.067743083385185514e+02
3.380000000000000000e+02 1.131299331673929771e+02
3.390000000000000000e+02 8.561141657818330941e+01
3.400000000000000000e+02 1.070495202447620500e+02
3.410000000000000000e+02 1.031760377515043103e+02
3.420000000000000000e+02 8.930605556822895608e+01
3.430000000000000000e+02 1.047920958307405215e+02
3.440000000000000000e+02 9.689215388508615945e+01
3.450000000000000000e+02 9.158417567724536923e+01
3.460000000000000000e+02 9.066721884256376995e+01
3.470000000000000000e+02 7.826794280647170865e+01
3.480000000000000000e+02 6.120305312383354845e+01
3.490000000000000000e+02 9.036539642812719819e+01
3.500000000000000000e+02 6.799711705723807142e+01
3.510000000000000000e+02 7.903965573739918682e+01
3.520000000000000000e+02 1.009965068450522523e+02
3.530000000000000000e+02 4.909391293715064108e+01
3.540000000000000000e+02 4.474796094586167072e+01
3.550000000000000000e+02 5.427796387471454409e+01
3.560000000000000000e+02 6.004774379589294142e+01
3.570000000000000000e+02 5.227268473553247929e+01
3.580000000000000000e+02 2.410128583990029938e+01
3.590000000000000000e+02 4.719359828251406697e+01
3.600000000000000000e+02 6.265677555693838485e+01
3.610000000000000000e+02 6.551124445043549827e+01
3.620000000000000000e+02 5.715939569383910168e+01
3.630000000000000000e+02 2.141365966811848054e+01
3.640000000000000000e+02 2.024678476150898021e+00
3.650000000000000000e+02 2.954703870358952855e+01
3.660000000000000000e+02 5.687112308027384699e+01
3.670000000000000000e+02 4.645991576939052692e+01
3.680000000000000000e+02 2.997751547189340826e+01
3.690000000000000000e+02 5.194054469404269625e+00
3.700000000000000000e+02 1.975228768927532030e+01
3.710000000000000000e+02 5.045624175482362261e+01
3.720000000000000000e+02 2.217595055797481507e+01
3.730000000000000000e+02 5.891155078199537343e+01
3.740000000000000000e+02 3.672492176519439511e+01
3.750000000000000000e+02 1.784491041692576019e+01
3.760000000000000000e+02 2.145537303671435225e+01
3.770000000000000000e+02 2.156125088363405240e+01
3.780000000000000000e+02 5.694437095001018179e+01
3.790000000000000000e+02 2.107654087741047633e+01
3.800000000000000000e+02 5.584094267579379434e+00
3.810000000000000000e+02 2.623266055590127621e+01
3.820000000000000000e+02 2.179626916407372050e+01
3.830000000000000000e+02 1.895515640738434371e+01
3.840000000000000000e+02 2.959030344255505085e+01
3.850000000000000000e+02 3.899024952706904656e+01
3.860000000000000000e+02 3.410199902924661330e+01
3.870000000000000000e+02 2.048717723351334286e+01
3.880000000000000000e+02 6.310140337274077638e+00
3.890000000000000000e+02 2.132543846297375012e+01
3.900000000000000000e+02 1.639056734964762185e+01
3.910000000000000000e+02 1.405370258473400824e+01
3.920000000000000000e+02 2.466165627255838544e+01
3.930000000000000000e+02 7.736244954583231248e+00
3.940000000000000000e+02 2.276188868077160521e+01
3.950000000000000000e+02 9.652772441402857062e-01
3.960000000000000000e+02 1.801819350145201426e+01
3.970000000000000000e+02 5.725675948558667905e+00
3.980000000000000000e+02 4.425550585563161832e+01
3.990000000000000000e+02 9.238613599254204445e+00
4.000000000000000000e+02 2.557367581829444347e+01
4.010000000000000000e+02 3.707141149968878580e+01
4.020000000000000000e+02 1.876277162621864392e+01
4.030000000000000000e+02 4.299169805227199248e+01
4.040000000000000000e+02 4.197058331673872544e+01
4.050000000000000000e+02 1.450703770649293034e+01
4.060000000000000000e+02 1.769399996681098486e+00
4.070000000000000000e+02 6.026955001866901362e+00
4.080000000000000000e+02 8.104857798223207510e+00
4.090000000000000000e+02 9.135747141671760829e+00
4.100000000000000000e+02 2.415204767060771118e+01
4.110000000000000000e+02 4.339425631611682377e+00
4.120000000000000000e+02 2.577289338518983541e+01
4.130000000000000000e+02 7.520466518042364434e+00
4.140000000000000000e+02 1.236672654221117007e+01
4.150000000000000000e+02 1.546005107280663360e+01
4.160000000000000000e+02 5.347868037121502738e+01
4.170000000000000000e+02 8.731799936527192330e+00
4.180000000000000000e+02 1.431592410620235256e+01
4.190000000000000000e+02 4.194740961011987679e+01
4.200000000000000000e+02 7.665567343912169918e+01
4.210000000000000000e+02 1.006661389029448230e+02
4.220000000000000000e+02 5.714089746733111497e+01
4.230000000000000000e+02 6.347410381663508616e+01
4.240000000000000000e+02 6.738675160755029481e+01
4.250000000000000000e+02 8.343105234806012049e+01
4.260000000000000000e+02 1.265713242688234743e+02
4.270000000000000000e+02 1.459109490976975678e+02
4.280000000000000000e+02 1.299466303256585604e+02
4.290000000000000000e+02 1.507631862476661695e+02
4.300000000000000000e+02 1.772785994399501988e+02
4.310000000000000000e+02 1.893496579962666999e+02
4.320000000000000000e+02 2.426016301389753949e+02
4.330000000000000000e+02 2.190349181497604718e+02
4.340000000000000000e+02 2.259411183986730975e+02
4.350000000000000000e+02 2.557895841319230783e+02
4.360000000000000000e+02 2.767862426260104485e+02
4.370000000000000000e+02 3.203220574777028560e+02
4.380000000000000000e+02 3.566713661343845274e+02
4.390000000000000000e+02 3.708280050611905949e+02
4.400000000000000000e+02 3.707263980087118966e+02
4.410000000000000000e+02 3.827520898382405790e+02
4.420000000000000000e+02 4.313156669363198148e+02
4.430000000000000000e+02 4.911122733872633717e+02
4.440000000000000000e+02 5.243455369970964739e+02
4.450000000000000000e+02 5.101431913503421924e+02
4.460000000000000000e+02 4.875459241858534369e+02
4.470000000000000000e+02 5.349042944006640710e+02
4.480000000000000000e+02 5.900221707529562991e+02
4.490000000000000000e+02 6.370510722464221089e+02
4.500000000000000000e+02 6.837931444006648007e+02
4.510000000000000000e+02 7.307433549678494273e+02
4.520000000000000000e+02 7.602407597593867195e+02
4.530000000000000000e+02 8.231453370047699991e+02
4.540000000000000000e+02 8.278852500311134008e+02
4.550000000000000000e+02 8.294897906658376314e+02
4.560000000000000000e+02 8.384372483302223600e+02
4.570000000000000000e+02 8.262898498029446728e+02
4.580000000000000000e+02 8.981142971997491031e+02
4.590000000000000000e+02 9.171570109520847609e+02
4.600000000000000000e+02 9.121665331259074492e+02
4.610000000000000000e+02 9.098043214685750399e+02
4.620000000000000000e+02 9.050081509437876548e+02
4.630000000000000000e+02 9.227519939639078075e+02
4.640000000000000000e+02 9.205856213233770404e+02
4.650000000000000000e+02 8.994116325243722940e+02
4.660000000000000000e+02 8.762788012860402205e+02
4.670000000000000000e+02 8.630524324346744152e+02
4.680000000000000000e+02 8.521557469197259707e+02
4.690000000000000000e+02 8.416140568139387597e+02
4.700000000000000000e+02 8.050762257154710824e+02
4.710000000000000000e+02 7.876210948558390328e+02
4.720000000000000000e+02 7.964818479775971127e+02
4.730000000000000000e+02 7.172748262546664364e+02
4.740000000000000000e+02 7.087861442646750447e+02
4.750000000000000000e+02 6.569306782617737781e+02
4.760000000000000000e+02 6.080359184155952335e+02
4.770000000000000000e+02 6.043444103298073742e+02
4.780000000000000000e+02 5.426235557353255672e+02
4.790000000000000000e+02 4.958650247873884496e+02
4.800000000000000000e+02 4.696988166562954348e+02
4.810000000000000000e+02 4.407044004978224052e+02
4.820000000000000000e+02 4.044496075295579658e+02
4.830000000000000000e+02 3.743774734287489423e+02
4.840000000000000000e+02 3.033219451773491073e+02
4.850000000000000000e+02 2.671828886330633850e+02
4.860000000000000000e+02 2.619663200373367999e+02
4.870000000000000000e+02 2.396591087118850396e+02
4.880000000000000000e+02 1.715113422111585919e+02
4.890000000000000000e+02 1.395570343704621621e+02
4.900000000000000000e+02 1.582769009956446951e+02
4.910000000000000000e+02 1.718577922837584708e+02
4.920000000000000000e+02 1.593980974284534966e+02
4.930000000000000000e+02 1.442479987347022643e+02
4.940000000000000000e+02 1.672226183986722958e+02
4.950000000000000000e+02 1.804428544379923949e+02
4.960000000000000000e+02 2.235184741132546833e+02
4.970000000000000000e+02 2.338662574984444689e+02
4.980000000000000000e+02 2.061457760265451782e+02
4.990000000000000000e+02 2.769795838830127650e+02
5.000000000000000000e+02 3.540678515868082172e+02
5.010000000000000000e+02 4.695054600580698434e+02
5.020000000000000000e+02 5.256170386019495027e+02
5.030000000000000000e+02 5.433068732628092903e+02
5.040000000000000000e+02 6.800035017834892415e+02
5.050000000000000000e+02 8.253017342252616118e+02
5.060000000000000000e+02 9.167349555486433701e+02
5.070000000000000000e+02 1.029482935283134111e+03
5.080000000000000000e+02 1.167092874922213241e+03
5.090000000000000000e+02 1.281485668948347666e+03
5.100000000000000000e+02 1.429214562538891414e+03
5.110000000000000000e+02 1.580152456751709678e+03
5.120000000000000000e+02 1.744504836755857013e+03
5.130000000000000000e+02 1.887148555693837579e+03
5.140000000000000000e+02 2.007068246421901449e+03
5.150000000000000000e+02 2.185843680979050987e+03
5.160000000000000000e+02 2.309886886952914665e+03
5.170000000000000000e+02 2.463333849408837068e+03
5.180000000000000000e+02 2.619656684363334989e+03
5.190000000000000000e+02 2.764698764156817106e+03
5.200000000000000000e+02 2.940891901887575841e+03
5.210000000000000000e+02 3.015963513065118605e+03
5.220000000000000000e+02 3.090528701929061299e+03
5.230000000000000000e+02 3.173656615432482795e+03
5.240000000000000000e+02 3.230053599958523591e+03
5.250000000000000000e+02 3.260401555486414054e+03
5.260000000000000000e+02 3.325551513793818685e+03
5.270000000000000000e+02 3.325529654914972980e+03
5.280000000000000000e+02 3.319701863721219524e+03
5.290000000000000000e+02 3.302354966189587230e+03
5.300000000000000000e+02 3.242386010991289368e+03
5.310000000000000000e+02 3.161453178593652865e+03
5.320000000000000000e+02 3.077805441817050905e+03
5.330000000000000000e+02 2.965344584940882669e+03
5.340000000000000000e+02 2.876707209914955456e+03
5.350000000000000000e+02 2.832476549471064118e+03
5.360000000000000000e+02 2.785512097282721243e+03
5.370000000000000000e+02 2.651446472308650300e+03
5.380000000000000000e+02 2.629704521468574967e+03
5.390000000000000000e+02 2.556787797344949468e+03
5.400000000000000000e+02 2.401362590126531359e+03
5.410000000000000000e+02 2.275949573117612090e+03
5.420000000000000000e+02 2.213176868699440092e+03
5.430000000000000000e+02 2.118629838830119752e+03
5.440000000000000000e+02 2.041891252229829433e+03
5.450000000000000000e+02 1.953863507985895922e+03
5.460000000000000000e+02 1.851824646546360327e+03
5.470000000000000000e+02 1.796124931978433779e+03
5.480000000000000000e+02 1.722396220078820534e+03
5.490000000000000000e+02 1.570850689068656266e+03
5.500000000000000000e+02 1.444393332642059022e+03
5.510000000000000000e+02 1.369121890479154899e+03
5.520000000000000000e+02 1.295650214893177917e+03
5.530000000000000000e+02 1.210730502903361412e+03
5.540000000000000000e+02 1.138581036714375614e+03
5.550000000000000000e+02 1.191873462974483346e+03
5.560000000000000000e+02 1.129157322272919828e+03
5.570000000000000000e+02 8.991390965982211583e+02
5.580000000000000000e+02 7.632322386849242548e+02
5.590000000000000000e+02 6.814723636175077672e+02
5.600000000000000000e+02 6.092195630367153854e+02
5.610000000000000000e+02 5.432191265505092588e+02
5.620000000000000000e+02 4.793935670607752400e+02
5.630000000000000000e+02 4.210330553619579632e+02
5.640000000000000000e+02 3.964167934660857213e+02
5.650000000000000000e+02 3.350852733665195728e+02
5.660000000000000000e+02 2.924159675171119943e+02
5.670000000000000000e+02 2.639612748599867018e+02
5.680000000000000000e+02 2.283850074673316044e+02
5.690000000000000000e+02 1.905833442439343060e+02
5.700000000000000000e+02 1.559699932171732257e+02
5.710000000000000000e+02 1.173391206388729984e+02
5.720000000000000000e+02 7.536990017838773781e+01
5.730000000000000000e+02 5.501930734964693670e+01
5.740000000000000000e+02 6.415046636589922002e+01
5.750000000000000000e+02 6.193208386434349677e+01
5.760000000000000000e+02 6.347483908129441232e+01
5.770000000000000000e+02 1.840815787388508795e+01
5.780000000000000000e+02 1.370348510889859739e+01
5.790000000000000000e+02 9.423960757776541186e+00
5.800000000000000000e+02 4.211920533291907276e+01
5.810000000000000000e+02 4.079939651731979922e+01
5.820000000000000000e+02 2.818183981128219173e+01
5.830000000000000000e+02 2.157107418170487989e+01
5.840000000000000000e+02 1.177672998755375744e+01
5.850000000000000000e+02 7.413158189586952496e+00
5.860000000000000000e+02 3.787092222567912358e+01
5.870000000000000000e+02 3.484413214433792660e+01
5.880000000000000000e+02 2.331146367766055505e+01
5.890000000000000000e+02 1.063006654138178675e+01
5.900000000000000000e+02 1.227730758855198090e+01
5.910000000000000000e+02 3.617412948143525142e+01
5.920000000000000000e+02 4.921337610454270362e+01
5.930000000000000000e+02 1.183035667606770325e+01
5.940000000000000000e+02 5.194527363617608273e+01
5.950000000000000000e+02 6.419489641153244008e+01
5.960000000000000000e+02 3.360794644753156035e+01
5.970000000000000000e+02 2.411107115743578788e+01
5.980000000000000000e+02 4.893429880523052056e+00
5.990000000000000000e+02 1.670333529558218544e+01
6.000000000000000000e+02 7.949813095812377384e+00
6.010000000000000000e+02 1.624385533934990633e+01
6.020000000000000000e+02 9.184924845053117792e+00
6.030000000000000000e+02 3.997111013479398345e+00
6.040000000000000000e+02 1.763574745281071543e+01
6.050000000000000000e+02 1.953666827400900630e+01
6.060000000000000000e+02 2.075565513894650849e+01
6.070000000000000000e+02 4.934928518357171612e+01
6.080000000000000000e+02 2.623822110972811927e+01
6.090000000000000000e+02 3.208790927001300730e+01
6.100000000000000000e+02 9.794982828251607998e+01
6.110000000000000000e+02 7.936358611076344971e+01
6.120000000000000000e+02 3.227401471173558889e+01
6.130000000000000000e+02 2.439261874507590377e+01
6.140000000000000000e+02 6.248147939846552390e+01
6.150000000000000000e+02 7.131093279195121681e+01
6.160000000000000000e+02 9.415054141879225824e+01
6.170000000000000000e+02 8.529701954573641842e+01
6.180000000000000000e+02 7.582158932586580136e+01
6.190000000000000000e+02 8.777773516490341876e+01
6.200000000000000000e+02 9.336974339141247015e+01
6.210000000000000000e+02 9.843051059738645847e+01
6.220000000000000000e+02 9.716838763119683620e+01
6.230000000000000000e+02 1.090645935200166576e+02
6.240000000000000000e+02 1.002056617963069840e+02
6.250000000000000000e+02 6.650200181704975932e+01
6.260000000000000000e+02 6.574367747200412282e+01
6.270000000000000000e+02 1.000290738767882885e+02
6.280000000000000000e+02 5.373585348890127733e+01
6.290000000000000000e+02 4.774064456657107058e+01
6.300000000000000000e+02 7.586748398257620352e+01
6.310000000000000000e+02 8.014138479776029556e+01
6.320000000000000000e+02 1.058415406117801183e+02
6.330000000000000000e+02 1.361524546152245705e+02
6.340000000000000000e+02 1.307058818917232941e+02
6.350000000000000000e+02 1.116238422646199524e+02
6.360000000000000000e+02 9.622813976146029802e+01
6.370000000000000000e+02 1.021880000829702624e+02
6.380000000000000000e+02 1.454666295313154478e+02
6.390000000000000000e+02 1.278314305538264080e+02
6.400000000000000000e+02 1.395339355735326876e+02
6.410000000000000000e+02 1.394917369425423317e+02
6.420000000000000000e+02 1.217605383530387257e+02
6.430000000000000000e+02 1.171123561916613482e+02
6.440000000000000000e+02 1.074204714374612450e+02
6.450000000000000000e+02 1.367221341422944647e+02
6.460000000000000000e+02 1.349248092719351746e+02
6.470000000000000000e+02 8.900937507570904472e+01
6.480000000000000000e+02 5.787166086496585393e+01
6.490000000000000000e+02 7.431543309064510083e+01
6.500000000000000000e+02 6.173405948350966810e+01
6.510000000000000000e+02 1.252711797718308731e+02
6.520000000000000000e+02 1.531444773490976843e+02
6.530000000000000000e+02 8.366977135034095170e+01
6.540000000000000000e+02 1.795815131922850227e+01
6.550000000000000000e+02 6.674427388428028962e+01
6.560000000000000000e+02 9.454959107031760368e+01
6.570000000000000000e+02 1.329655349719974708e+02
6.580000000000000000e+02 1.078034552053090778e+02
6.590000000000000000e+02 9.120732135449087252e+01
6.600000000000000000e+02 9.514644438913103386e+01
6.610000000000000000e+02 7.179559740564081949e+01
6.620000000000000000e+02 8.465868130056004759e+01
6.630000000000000000e+02 7.442210226301612863e+01
6.640000000000000000e+02 7.939704994608048594e+01
6.650000000000000000e+02 9.986790149346599321e+01
6.660000000000000000e+02 1.075079443061605673e+02
6.670000000000000000e+02 9.067660574984441268e+01
6.680000000000000000e+02 8.302981524579975314e+01
6.690000000000000000e+02 1.092210761094980285e+02
6.700000000000000000e+02 9.245331600497830493e+01
6.710000000000000000e+02 7.658885477909132078e+01
6.720000000000000000e+02 9.093420689755274111e+01
6.730000000000000000e+02 9.952821200995641959e+01
6.740000000000000000e+02 9.817926395146243124e+01
6.750000000000000000e+02 8.849635252799676266e+01
6.760000000000000000e+02 8.975567388301175242e+01
6.770000000000000000e+02 7.894904305330891248e+01
6.780000000000000000e+02 6.329239612194116660e+01
6.790000000000000000e+02 7.184404915370234335e+01
6.800000000000000000e+02 9.627219776602352397e+01
6.810000000000000000e+02 9.506122620410698687e+01
6.820000000000000000e+02 8.058986733872639263e+01
6.830000000000000000e+02 7.416912594275046899e+01
6.840000000000000000e+02 8.614151387678863614e+01
6.850000000000000000e+02 1.033023959303045132e+02
6.860000000000000000e+02 8.264970556523530831e+01
6.870000000000000000e+02 1.031891272350133022e+02
6.880000000000000000e+02 6.340691166770558596e+01
6.890000000000000000e+02 5.266217656502686140e+01
6.900000000000000000e+02 9.290397754822561183e+01
6.910000000000000000e+02 9.803446797345054620e+01
6.920000000000000000e+02 2.381274380626690501e+01
6.930000000000000000e+02 3.175036772038939148e+01
6.940000000000000000e+02 5.735566775357740710e+01
6.950000000000000000e+02 9.082465549149657136e+01
6.960000000000000000e+02 9.649750609832007342e+01
6.970000000000000000e+02 6.557568414021984893e+01
6.980000000000000000e+02 7.069222857942762062e+01
6.990000000000000000e+02 5.640445131300529624e+01
7.000000000000000000e+02 4.104881445343278301e+01
7.010000000000000000e+02 6.622228294483450384e+01
7.020000000000000000e+02 7.577194871188684999e+01
7.030000000000000000e+02 7.375731390790463138e+01
7.040000000000000000e+02 1.223926208212356102e+02
7.050000000000000000e+02 2.168169689276428613e+01
7.060000000000000000e+02 7.755795363616982740e+01
7.070000000000000000e+02 4.889157362995442213e+01
7.080000000000000000e+02 3.067409993776980315e+01
7.090000000000000000e+02 8.509227227753532929e+01
7.100000000000000000e+02 8.129890057871860165e+01
7.110000000000000000e+02 4.150959734287489766e+01
7.120000000000000000e+02 8.173250056004916075e+01
7.130000000000000000e+02 9.797454808960783623e+01
7.140000000000000000e+02 7.903716569176491191e+01
7.150000000000000000e+02 5.563357737606289533e+01
7.160000000000000000e+02 4.829343924704433277e+01
7.170000000000000000e+02 5.771056292470441917e+01
7.180000000000000000e+02 3.085643103297972090e+01
7.190000000000000000e+02 2.470850987346999972e+01
7.200000000000000000e+02 4.549370149346766823e+01
7.210000000000000000e+02 5.567494592700052181e+01
7.220000000000000000e+02 4.872829298693083899e+01
7.230000000000000000e+02 6.559577328147828723e+01
7.240000000000000000e+02 2.045557803815854925e+01
7.250000000000000000e+02 6.101031148516826619e+01
7.260000000000000000e+02 3.389492750778020991e+01
7.270000000000000000e+02 9.823384624429753131e+00
7.280000000000000000e+02 1.570260827011223270e+00
7.290000000000000000e+02 3.741905389338324728e+00
7.300000000000000000e+02 1.157174731646625432e+01
7.310000000000000000e+02 1.560767956938462220e+01
7.320000000000000000e+02 2.014151918689118759e+01
7.330000000000000000e+02 5.037715154915049709e+01
7.340000000000000000e+02 5.358851160132756064e+01
7.350000000000000000e+02 6.340847914748106717e+01
7.360000000000000000e+02 8.777100545737596349e+01
7.370000000000000000e+02 2.795726285417776324e+01
7.380000000000000000e+02 2.102442129406925631e+01
7.390000000000000000e+02 1.216555317402912095e+01
7.400000000000000000e+02 1.950361839133217501e+01
7.410000000000000000e+02 3.421769410703172554e+01
7.420000000000000000e+02 6.551385685749839638e+01
7.430000000000000000e+02 9.162639452094583703e+01
7.440000000000000000e+02 6.593223700684414723e+01
7.450000000000000000e+02 1.910789988176634324e+01
7.460000000000000000e+02 1.998100174616430635e+00
7.470000000000000000e+02 1.821926720638953867e+01
7.480000000000000000e+02 4.087156735739583979e+01
7.490000000000000000e+02 6.002887263638368864e+01
7.500000000000000000e+02 1.756964962538717145e+01
7.510000000000000000e+02 1.614270090833720062e+01
7.520000000000000000e+02 1.053541183986676266e+01
7.530000000000000000e+02 4.479196055382594466e+01
7.540000000000000000e+02 6.148136976150920674e+01
7.550000000000000000e+02 4.265126260112018031e+01
7.560000000000000000e+02 2.508786462144822593e+01
7.570000000000000000e+02 5.761563516383277772e+01
7.580000000000000000e+02 3.135648460485238331e+01
7.590000000000000000e+02 3.581890360920952077e+01
7.600000000000000000e+02 5.371289465989424627e+01
7.610000000000000000e+02 4.508248011615857820e+01
7.620000000000000000e+02 5.825953652354223777e+01
7.630000000000000000e+02 4.674056576644018435e+01
7.640000000000000000e+02 6.696697421281801610e+01
7.650000000000000000e+02 5.953894193528384449e+01
7.660000000000000000e+02 5.590322992532884427e+01
7.670000000000000000e+02 2.260021404480428941e+01
7.680000000000000000e+02 4.614778846297474502e+01
7.690000000000000000e+02 4.591696732420673754e+01
7.700000000000000000e+02 1.793626751918726825e+01
7.710000000000000000e+02 1.747931319643205228e+01
7.720000000000000000e+02 5.722845473553266515e+01
7.730000000000000000e+02 6.336458394523930338e+01
7.740000000000000000e+02 8.396919559012367529e+00
7.750000000000000000e+02 1.500035893798082576e+01
7.760000000000000000e+02 6.471922119892124670e+01
7.770000000000000000e+02 2.579767006802117280e+01
7.780000000000000000e+02 3.537554830118345706e+01
7.790000000000000000e+02 8.009016557768121913e+01
7.800000000000000000e+02 9.064845218581487529e+01
7.810000000000000000e+02 7.712110348475403043e+01
7.820000000000000000e+02 6.959304891723706987e+01
7.830000000000000000e+02 7.228586408958950926e+01
7.840000000000000000e+02 1.203845876229005256e+02
7.850000000000000000e+02 4.498202125700036902e+01
7.860000000000000000e+02 1.406371946495193725e+01
7.870000000000000000e+02 4.875065805849423128e+01
7.880000000000000000e+02 6.515392897739046418e+01
7.890000000000000000e+02 6.132852867454772650e+00
7.900000000000000000e+02 4.486731669985494619e+01
7.910000000000000000e+02 5.058830027380227534e+01
7.920000000000000000e+02 4.996926456751735657e+01
7.930000000000000000e+02 4.534015012238127440e+01
7.940000000000000000e+02 1.017278250363002101e+01
7.950000000000000000e+02 2.155571945239590548e+01
7.960000000000000000e+02 5.594829733042926989e+01
7.970000000000000000e+02 3.920403957270315232e+01
7.980000000000000000e+02 5.017738451566070523e+01
7.990000000000000000e+02 7.877830967641548909e+01
8.000000000000000000e+02 7.695601640323619108e+01
8.010000000000000000e+02 6.011244077162415067e+01
8.020000000000000000e+02 9.080305010993572523e+01
8.030000000000000000e+02 7.964240896723364926e+01
8.040000000000000000e+02 8.421913944202445634e+01
8.050000000000000000e+02 7.597989407591758493e+01
8.060000000000000000e+02 7.604761681045171429e+01
8.070000000000000000e+02 8.147746991288133245e+01
8.080000000000000000e+02 7.379901416718476526e+01
8.090000000000000000e+02 9.992518767316450123e+01
8.100000000000000000e+02 7.953759977598045339e+01
8.110000000000000000e+02 7.935839807716216399e+01
8.120000000000000000e+02 7.955405650559943354e+01
8.130000000000000000e+02 7.669312241028829646e+01
8.140000000000000000e+02 6.547493972619855640e+01
8.150000000000000000e+02 4.516475817672645121e+01
8.160000000000000000e+02 9.259500987346976331e+01
8.170000000000000000e+02 1.294817043559426679e+02
8.180000000000000000e+02 1.129595161252846793e+02
8.190000000000000000e+02 4.528260696328481316e+01
8.200000000000000000e+02 4.434772975731280553e+01
8.210000000000000000e+02 1.175281913295989824e+02
8.220000000000000000e+02 1.090563799958495821e+02
8.230000000000000000e+02 4.219952512756560736e+01
8.240000000000000000e+02 6.447195856876081166e+01
8.250000000000000000e+02 2.905949281477079893e+01
8.260000000000000000e+02 2.922511038912863768e+01
8.270000000000000000e+02 3.371949147479838871e+01
8.280000000000000000e+02 1.686679115121345518e+01
8.290000000000000000e+02 4.202506782870179336e+01
8.300000000000000000e+02 4.274366881974653154e+01
8.310000000000000000e+02 7.247622550300741295e+01
8.320000000000000000e+02 6.344924735794295145e+01
8.330000000000000000e+02 7.267653019912897605e+01
8.340000000000000000e+02 8.742554299937768292e+01
8.350000000000000000e+02 7.579296103484006153e+01
8.360000000000000000e+02 5.458759270275801612e+01
8.370000000000000000e+02 2.732755626011149985e+01
8.380000000000000000e+02 2.445848784321827196e+01
8.390000000000000000e+02 5.610309994399337086e+01
8.400000000000000000e+02 5.331610811657191107e+01
8.410000000000000000e+02 3.195218485275887588e+01
8.420000000000000000e+02 3.057972079029153178e+01
8.430000000000000000e+02 4.276271186061055118e+01
8.440000000000000000e+02 2.494929344534358862e+01
8.450000000000000000e+02 1.362292705455321773e+01
8.460000000000000000e+02 3.245568627877973178e+00
8.470000000000000000e+02 4.052464642812692830e+01
8.480000000000000000e+02 7.215434569798796360e+01
8.490000000000000000e+02 4.014752646961230198e+01
8.500000000000000000e+02 8.354629836133799614e+00
8.510000000000000000e+02 1.165917975482308222e+01
8.520000000000000000e+02 2.141240656502817075e+01
8.530000000000000000e+02 6.047259084007638563e+01
8.540000000000000000e+02 1.365137575606308218e+01
8.550000000000000000e+02 1.991079310245008216e+01
8.560000000000000000e+02 6.709500285003231568e+01
8.570000000000000000e+02 4.801994021779680821e+01
8.580000000000000000e+02 4.397325472625484366e+01
8.590000000000000000e+02 4.348114364447271640e+01
8.600000000000000000e+02 7.788107965153132639e+00
8.610000000000000000e+02 4.188699969721977112e+01
8.620000000000000000e+02 8.363125718108263129e+01
8.630000000000000000e+02 5.927702317569024615e+01
8.640000000000000000e+02 5.563528890501652668e+00
8.650000000000000000e+02 3.680357833229603415e+00
8.660000000000000000e+02 2.969565487243339419e+01
8.670000000000000000e+02 9.123169007049961365e+00
8.680000000000000000e+02 1.799694297033899559e+01
8.690000000000000000e+02 1.832184705040395656e+01
8.700000000000000000e+02 4.262317334164415605e+00
8.710000000000000000e+02 2.147959502177942070e+01
8.720000000000000000e+02 2.092569961211441765e+01
8.730000000000000000e+02 4.967010118025260113e+01
8.740000000000000000e+02 5.294184204107040159e+01
8.750000000000000000e+02 6.948473316946719081e+01
8.760000000000000000e+02 5.231492220286299499e+01
8.770000000000000000e+02 3.465782017216344002e+01
8.780000000000000000e+02 4.891705842563742124e+01
8.790000000000000000e+02 5.401994645924061444e+01
8.800000000000000000e+02 1.351176011823168999e+01
8.810000000000000000e+02 3.445537905413881674e+01
8.820000000000000000e+02 1.654367200331759591e+01
8.830000000000000000e+02 3.159318131923779305e+00
8.840000000000000000e+02 5.437160308027655731e+01
8.850000000000000000e+02 7.558184919327879925e+01
8.860000000000000000e+02 2.682302739058312824e+01
8.870000000000000000e+02 3.381246730553910851e+01
8.880000000000000000e+02 5.932137522604768520e+01
8.890000000000000000e+02 5.265387836963306967e+01
8.900000000000000000e+02 4.384029228790713262e+01
8.910000000000000000e+02 6.449538905018653168e+01
8.920000000000000000e+02 7.247146487243304591e+01
8.930000000000000000e+02 5.983675841941504103e+01
8.940000000000000000e+02 6.190813760680227773e+01
8.950000000000000000e+02 6.660136915162824778e+01
8.960000000000000000e+02 4.481908585355721186e+01
8.970000000000000000e+02 4.867594225679499687e+01
8.980000000000000000e+02 1.236809044181720054e+02
8.990000000000000000e+02 9.547046130470687331e+01
9.000000000000000000e+02 2.872143307197702455e+01
9.010000000000000000e+02 3.424674805849397785e+01
9.020000000000000000e+02 3.870231830740534207e+01
9.030000000000000000e+02 6.877346045426205023e+01
9.040000000000000000e+02 7.965730447002702874e+01
9.050000000000000000e+02 8.567702691972621665e+01
9.060000000000000000e+02 6.073681732005815093e+01
9.070000000000000000e+02 4.034732996266337324e+01
9.080000000000000000e+02 5.889671716034003168e+01
9.090000000000000000e+02 7.799074682638344314e+01
9.100000000000000000e+02 2.267170711885480827e+01
9.110000000000000000e+02 7.017886529655696037e+00
9.120000000000000000e+02 1.194071747977612041e+01
9.130000000000000000e+02 7.733929718205859949e+00
9.140000000000000000e+02 3.624080037536317889e+01
9.150000000000000000e+02 4.573273160962406791e+01
9.160000000000000000e+02 1.955393082762912371e+01
9.170000000000000000e+02 2.545119941103278194e+01
9.180000000000000000e+02 2.610374226716450252e+01
9.190000000000000000e+02 3.281416165733248391e+01
9.200000000000000000e+02 3.737657091248451735e+01
9.210000000000000000e+02 9.231967523957708011e+01
9.220000000000000000e+02 6.761315612943421627e+01
9.230000000000000000e+02 1.323412831155361502e+01
9.240000000000000000e+02 1.780138650694874869e+01
9.250000000000000000e+02 4.407937884256458005e+01
9.260000000000000000e+02 9.232701081518352737e+01
9.270000000000000000e+02 5.203065570421102137e+01
9.280000000000000000e+02 6.649661063057700439e+00
9.290000000000000000e+02 2.488923045426263059e+01
9.300000000000000000e+02 3.589503819539534391e+01
9.310000000000000000e+02 1.053766340842200933e+01
9.320000000000000000e+02 1.902577261563985545e+01
9.330000000000000000e+02 8.492591725160707483e+01
9.340000000000000000e+02 5.858868790914802815e+01
9.350000000000000000e+02 7.382565754200356878e+01
9.360000000000000000e+02 3.323313768512774402e+01
9.370000000000000000e+02 6.144855636043010350e+01
9.380000000000000000e+02 8.578136839659809709e+01
9.390000000000000000e+02 5.797987567517084528e+01
9.400000000000000000e+02 2.624538666113648233e+01
9.410000000000000000e+02 2.719030799004363530e+01
9.420000000000000000e+02 1.750507948143502901e+01
9.430000000000000000e+02 4.352581045002287041e+00
9.440000000000000000e+02 1.113285799626621442e+00
9.450000000000000000e+02 2.379763857290917173e+01
9.460000000000000000e+02 3.834166732476148809e+01
9.470000000000000000e+02 3.277514652146876983e+01
9.480000000000000000e+02 2.261063422526486022e+01
9.490000000000000000e+02 2.144791329738683316e+01
9.500000000000000000e+02 7.167527664799995080e+01
9.510000000000000000e+02 1.542564065961380848e+01
9.520000000000000000e+02 1.812044289359058880e+01
9.530000000000000000e+02 2.648601888612321531e+01
9.540000000000000000e+02 3.431965013067826753e+00
9.550000000000000000e+02 1.684179047915509031e+01
9.560000000000000000e+02 7.096165618129113284e+01
9.570000000000000000e+02 9.808527675793420997e+01
9.580000000000000000e+02 8.912356116365947400e+01
9.590000000000000000e+02 6.861402951255013249e+01
9.600000000000000000e+02 4.405939615847241697e+01
9.610000000000000000e+02 4.230589609417106800e+01
9.620000000000000000e+02 3.706729966397081455e+01
9.630000000000000000e+02 4.441024720447789775e+01
9.640000000000000000e+02 6.026539528935954593e+01
9.650000000000000000e+02 5.091449314457523201e+01
9.660000000000000000e+02 7.378543491289883605e+01
9.670000000000000000e+02 8.704715605476035023e+01
9.680000000000000000e+02 1.072228363202654151e+02
9.690000000000000000e+02 1.066160533803400625e+02
9.700000000000000000e+02 6.731640043766768144e+01
9.710000000000000000e+02 7.462412960174329157e+01
9.720000000000000000e+02 1.198635785773541045e+02
9.730000000000000000e+02 1.271407812072190637e+02
9.740000000000000000e+02 1.547649986309901351e+02
9.750000000000000000e+02 1.508543912484453244e+02
9.760000000000000000e+02 1.017930022402020285e+02
9.770000000000000000e+02 1.109153292885305433e+02
9.780000000000000000e+02 1.234005690520639291e+02
9.790000000000000000e+02 1.164135639286458144e+02
9.800000000000000000e+02 1.295066878033583180e+02
9.810000000000000000e+02 1.540973006222778565e+02
9.820000000000000000e+02 1.177731654013693969e+02
9.830000000000000000e+02 9.602169442439345914e+01
9.840000000000000000e+02 8.631512685127547968e+01
9.850000000000000000e+02 2.368651546359628668e+01
9.860000000000000000e+02 6.201256785521748327e+01
9.870000000000000000e+02 1.208372861854397513e+02
9.880000000000000000e+02 9.469170879485385228e+01
9.890000000000000000e+02 1.225649810827393082e+01
9.900000000000000000e+02 2.391785769757450808e+01
9.910000000000000000e+02 8.026945275669032753e+01
9.920000000000000000e+02 8.422336751140642264e+01
9.930000000000000000e+02 1.002023577473553075e+02
9.940000000000000000e+02 7.834087322339610182e+01
9.950000000000000000e+02 2.872618615719462909e+01
9.960000000000000000e+02 4.488208521468404655e+01
9.970000000000000000e+02 7.089543028002583469e+01
9.980000000000000000e+02 3.039058065947747167e+01
9.990000000000000000e+02 2.735470866832603321e+01
1.000000000000000000e+03 3.033386961833613782e+00
1.001000000000000000e+03 2.039232564315286211e+00
1.002000000000000000e+03 1.791892653112066114e+01
1.003000000000000000e+03 3.133342084854692189e+01
1.004000000000000000e+03 5.905934786307021511e+01
1.005000000000000000e+03 6.352740937759318030e+01
1.006000000000000000e+03 8.047909956521750985e+01
1.007000000000000000e+03 7.512486547717779217e+01
1.008000000000000000e+03 6.075003771784167128e+01
1.009000000000000000e+03 9.291140763485513787e+01
1.010000000000000000e+03 8.379510726141123200e+01
1.011000000000000000e+03 7.808356141078839130e+01
1.012000000000000000e+03 5.218727933609930858e+01
1.013000000000000000e+03 5.426998427385839818e+01
1.014000000000000000e+03 8.133433993775962279e+01
1.015000000000000000e+03 8.557520390041501912e+01
1.016000000000000000e+03 7.366413962655555281e+01
1.017000000000000000e+03 6.893950979253132516e+01
1.018000000000000000e+03 5.069175157676347254e+01
1.019000000000000000e+03 6.160065887966885612e+01
1.020000000000000000e+03 1.098491423236497297e+02
1.021000000000000000e+03 1.647327479253123386e+02
1.022000000000000000e+03 1.566283518672213404e+02
1.023000000000000000e+03 1.091562589211615943e+02
1.024000000000000000e+03 1.131566329875522143e+02
1.025000000000000000e+03 1.401585535269686034e+02
1.026000000000000000e+03 7.912442186722081772e+01
1.027000000000000000e+03 1.147437071428562376e+02
1.028000000000000000e+03 7.801898149377353775e+01
1.029000000000000000e+03 6.846884775933726530e+01
1.030000000000000000e+03 1.067158776348516653e+02
1.031000000000000000e+03 1.298480863070538192e+02
1.032000000000000000e+03 1.350235344398353448e+02
1.033000000000000000e+03 1.212687576763588879e+02
1.034000000000000000e+03 4.554207850622344722e+01
1.035000000000000000e+03 7.906825641821941986e+01
1.036000000000000000e+03 5.298602510373392249e+01
1.037000000000000000e+03 5.120935622406567234e+01
1.038000000000000000e+03 8.167057396265603586e+01
1.039000000000000000e+03 8.767817692945953922e+01
1.040000000000000000e+03 8.329208178423212416e+01
1.041000000000000000e+03 8.638650751037341990e+01
1.042000000000000000e+03 7.771828012448040113e+01
1.043000000000000000e+03 5.669044269709354467e+01
1.044000000000000000e+03 5.801554213692787698e+01
1.045000000000000000e+03 1.030067935684647438e+02
1.046000000000000000e+03 8.232201149377411298e+01
1.047000000000000000e+03 7.407075608695626556e+01
1.048000000000000000e+03 8.262219535269713333e+01
1.049000000000000000e+03 6.279883219916698067e+01
1.050000000000000000e+03 5.400979419087218503e+01
1.051000000000000000e+03 8.434019037344337733e+01
1.052000000000000000e+03 8.816251645228192046e+01
1.053000000000000000e+03 8.897065659751189060e+01
1.054000000000000000e+03 1.224739387966792776e+02
1.055000000000000000e+03 6.997857080912879724e+01
1.056000000000000000e+03 8.298819304348162973e+01
1.057000000000000000e+03 7.366003315352928382e+01
1.058000000000000000e+03 9.585635999999890089e+01
1.059000000000000000e+03 8.250866896265209505e+01
1.060000000000000000e+03 2.267230128630942687e+01
1.061000000000000000e+03 5.149752863070439446e+01
1.062000000000000000e+03 6.246720842323638578e+01
1.063000000000000000e+03 5.577001653527110392e+01
1.064000000000000000e+03 9.445879391304120531e+01
1.065000000000000000e+03 7.341650784232413685e+01
1.066000000000000000e+03 1.538506980082683739e+01
1.067000000000000000e+03 1.483583035269509232e+01
1.068000000000000000e+03 2.234537087137037048e+01
1.069000000000000000e+03 1.245910504149386533e+01
1.070000000000000000e+03 2.232244975103807505e+01
1.071000000000000000e+03 2.734900549792454783e+01
1.072000000000000000e+03 3.591186289855074421e+01
1.073000000000000000e+03 3.765368464730497067e+01
1.074000000000000000e+03 7.266455535269722077e+01
1.075000000000000000e+03 1.214658224896175476e+01
1.076000000000000000e+03 3.154911645963027667e+01
1.077000000000000000e+03 7.669898968879675749e+01
1.078000000000000000e+03 3.608006010373856043e+01
1.079000000000000000e+03 9.689840939833922917e+00
1.080000000000000000e+03 3.043166751037358608e+01
1.081000000000000000e+03 1.252766290456631637e+01
1.082000000000000000e+03 2.539929788381776632e+00
1.083000000000000000e+03 5.198260099585255034e+01
1.084000000000000000e+03 1.821567850621905649e+01
1.085000000000000000e+03 3.559984068464664375e+01
1.086000000000000000e+03 2.136332792946025094e+01
1.087000000000000000e+03 4.274486180498492871e+01
1.088000000000000000e+03 6.326445983403111484e+01
1.089000000000000000e+03 1.093027593775958017e+01
1.090000000000000000e+03 1.313879882987730241e+01
1.091000000000000000e+03 4.702556493775927038e+01
1.092000000000000000e+03 3.492053132780206681e+01
1.093000000000000000e+03 1.685667217391288730e+01
1.094000000000000000e+03 4.517050983402797470e+01
1.095000000000000000e+03 4.688502981327935970e+01
1.096000000000000000e+03 8.186450248963669907e+00
1.097000000000000000e+03 1.993652315942251008e+01
1.098000000000000000e+03 3.878776958506716710e+01
1.099000000000000000e+03 9.026174589210075538e+00
1.100000000000000000e+03 3.110194643153500849e+01
1.101000000000000000e+03 2.789322085062465106e+01
1.102000000000000000e+03 7.505078230290563113e+01
1.103000000000000000e+03 2.326155654979277188e+01
1.104000000000000000e+03 3.322502429460707418e+01
1.105000000000000000e+03 2.049653091097292901e+01
1.106000000000000000e+03 9.747096493775272208e+00
1.107000000000000000e+03 2.389724095435707341e+01
1.108000000000000000e+03 3.194872165975540668e+01
1.109000000000000000e+03 8.529494966804918477e+01
1.110000000000000000e+03 5.821761417012441342e+01
1.111000000000000000e+03 8.285165008298841371e+01
1.112000000000000000e+03 3.709102995850480511e+01
1.113000000000000000e+03 6.232163857142818131e+01
1.114000000000000000e+03 5.398338738589135488e+01
1.115000000000000000e+03 4.446646207468881329e+01
1.116000000000000000e+03 5.857571236514417734e+01
1.117000000000000000e+03 2.342982103105506297e+01
1.118000000000000000e+03 2.127261732365037261e+01
1.119000000000000000e+03 4.906598568464647059e+01
1.120000000000000000e+03 4.560915020746895010e+01
1.121000000000000000e+03 3.885713954356778999e+01
1.122000000000000000e+03 2.158719619047629479e+01
1.123000000000000000e+03 9.754129012447840807e+01
1.124000000000000000e+03 6.746449074688695191e+01
1.125000000000000000e+03 2.086417907883595646e+01
1.126000000000000000e+03 8.014100296882520347e-02
1.127000000000000000e+03 2.182407983402467266e+01
1.128000000000000000e+03 4.615047836099576983e+01
1.129000000000000000e+03 2.721503284232178288e+01
1.130000000000000000e+03 1.458041460580771087e+01
1.131000000000000000e+03 6.286090647302969359e+01
1.132000000000000000e+03 6.104306547717699516e+01
1.133000000000000000e+03 3.613819107884054915e+01
1.134000000000000000e+03 3.759787051759780674e+00
1.135000000000000000e+03 1.325232630083183949e+01
1.136000000000000000e+03 7.058745085061832469e+01
1.137000000000000000e+03 3.956097721992066596e+01
1.138000000000000000e+03 1.133770516390084460e+01
1.139000000000000000e+03 6.309499311207884986e+00
1.140000000000000000e+03 4.043866701244812845e+01
1.141000000000000000e+03 3.767253265560165687e+01
1.142000000000000000e+03 2.919279859213085615e+01
1.143000000000000000e+03 1.337674073651290385e+01
1.144000000000000000e+03 4.796478045643108601e+01
1.145000000000000000e+03 3.920693031120274696e+01
1.146000000000000000e+03 6.377993552794956855e+01
1.147000000000000000e+03 6.186379307054061627e+01
1.148000000000000000e+03 5.205792767634856943e+01
1.149000000000000000e+03 6.788870062240859227e+01
1.150000000000000000e+03 8.599093684647223768e+01
1.151000000000000000e+03 7.337263643892359255e+01
1.152000000000000000e+03 2.434142858920907670e+01
1.153000000000000000e+03 6.768372192948351795e+00
1.154000000000000000e+03 5.632642773858565732e+01
1.155000000000000000e+03 1.056041514522818545e+02
1.156000000000000000e+03 4.392419037343765353e+01
1.157000000000000000e+03 1.863309626556324705e+00
1.158000000000000000e+03 5.588134875518544220e+01
1.159000000000000000e+03 5.620652041493293893e+01
1.160000000000000000e+03 3.175325103734403598e+01
1.161000000000000000e+03 6.772951143153360931e+01
1.162000000000000000e+03 7.161602910788289478e+01
1.163000000000000000e+03 2.533201639751317202e+01
1.164000000000000000e+03 4.388888136929342920e+01
1.165000000000000000e+03 4.487695000000000078e+01
1.166000000000000000e+03 5.027316817427516327e+01
1.167000000000000000e+03 7.150388602484505896e+01
1.168000000000000000e+03 4.784860871369354385e+01
1.169000000000000000e+03 5.306938589211686264e+01
1.170000000000000000e+03 4.374105342323597512e+01
1.171000000000000000e+03 1.236529295031173703e+01
1.172000000000000000e+03 1.581037492116230680e+01
1.173000000000000000e+03 6.536163746888537673e+01
1.174000000000000000e+03 1.010870938174287517e+02
1.175000000000000000e+03 5.553692397515565915e+01
1.176000000000000000e+03 5.958037576763550902e+01
1.177000000000000000e+03 6.191758398340274994e+01
1.178000000000000000e+03 4.185845819502193166e+01
1.179000000000000000e+03 4.141809606625253082e+01
1.180000000000000000e+03 2.563255489626377681e+01
1.181000000000000000e+03 1.353610842323438845e+01
1.182000000000000000e+03 1.006816507883704404e+01
1.183000000000000000e+03 3.873132863070370746e+01
1.184000000000000000e+03 4.261665773858293704e+01
1.185000000000000000e+03 7.968079968879784758e+01
1.186000000000000000e+03 6.749175641078930710e+01
1.187000000000000000e+03 1.101589883817415085e+02
1.188000000000000000e+03 2.796840755187131933e+01
1.189000000000000000e+03 3.554765244813275160e+01
1.190000000000000000e+03 1.733887908713531800e+01
1.191000000000000000e+03 3.453888174273537004e+01
1.192000000000000000e+03 3.189668931535299023e+01
1.193000000000000000e+03 2.663942943983452238e+01
1.194000000000000000e+03 5.909708769709835252e+01
1.195000000000000000e+03 7.621379997925590999e+01
1.196000000000000000e+03 2.718469359213266046e+01
1.197000000000000000e+03 1.234786947303180860e+01
1.198000000000000000e+03 6.081498572614018627e+01
1.199000000000000000e+03 4.594902286307127781e+01
1.200000000000000000e+03 2.705326944099311959e+01
1.201000000000000000e+03 1.610002497925324505e+01
1.202000000000000000e+03 3.247613829875387381e+01
1.203000000000000000e+03 5.008363224066397379e+01
1.204000000000000000e+03 5.813839016563200346e+01
1.205000000000000000e+03 4.380940651452466028e+01
1.206000000000000000e+03 3.262880477178414651e+01
1.207000000000000000e+03 2.515309186721900758e+01
1.208000000000000000e+03 4.030266190476940835e+01
1.209000000000000000e+03 1.144519993775934807e+02
1.210000000000000000e+03 8.417656344398194790e+01
1.211000000000000000e+03 2.151700153526722659e+01
1.212000000000000000e+03 1.819167139004005307e+01
1.213000000000000000e+03 4.501590775933606636e+01
1.214000000000000000e+03 3.504995120331840042e+01
1.215000000000000000e+03 4.158401153526897076e+01
1.216000000000000000e+03 4.639058854771798934e+01
1.217000000000000000e+03 4.931082458506255506e+01
1.218000000000000000e+03 1.662094062240124970e+01
1.219000000000000000e+03 1.870464937723280152e-01
1.220000000000000000e+03 5.773679060165904531e+01
1.221000000000000000e+03 9.873024838174085005e+01
1.222000000000000000e+03 6.630342323651846925e+01
1.223000000000000000e+03 4.218968082987427692e+01
1.224000000000000000e+03 7.175100145228137194e+01
1.225000000000000000e+03 1.210069384057962338e+01
1.226000000000000000e+03 7.641992742738372257e+00
1.227000000000000000e+03 2.439087060165984155e+01
1.228000000000000000e+03 5.744133879668277132e+01
1.229000000000000000e+03 5.038204416149169163e+01
1.230000000000000000e+03 3.284867020746898447e+01
1.231000000000000000e+03 6.081607834025108161e+01
1.232000000000000000e+03 6.412726892115773580e+01
1.233000000000000000e+03 6.829560184647686327e+00
1.234000000000000000e+03 2.127602053942112548e+01
1.235000000000000000e+03 9.113234257261026983e+01
1.236000000000000000e+03 3.491140871369466225e+01
1.237000000000000000e+03 3.633907602484437405e+01
1.238000000000000000e+03 5.475096265560112840e+01
1.239000000000000000e+03 1.658518719502045968e+01
1.240000000000000000e+03 8.773275497924245769e+00
1.241000000000000000e+03 7.336366478261079749e+01
1.242000000000000000e+03 8.289798906638580434e+01
1.243000000000000000e+03 3.119530087137334107e+01
1.244000000000000000e+03 1.758334460580886827e+01
1.245000000000000000e+03 1.802734939833887395e+01
1.246000000000000000e+03 7.183713751037168471e+00
1.247000000000000000e+03 3.262988647302702816e+01
1.248000000000000000e+03 6.827256186721834297e+01
1.249000000000000000e+03 1.467619352697037804e+01
1.250000000000000000e+03 2.253239425311163302e+01
1.251000000000000000e+03 2.775313875518682494e+01
1.252000000000000000e+03 7.111520576763716406e+01
1.253000000000000000e+03 5.276904717842306525e+01
1.254000000000000000e+03 3.367134680497932919e+01
1.255000000000000000e+03 3.524482763485503511e+01
1.256000000000000000e+03 7.968371871369990345e+01
1.257000000000000000e+03 1.131083543568462773e+02
1.258000000000000000e+03 7.973030614107781844e+01
1.259000000000000000e+03 5.695592109958593596e+01
1.260000000000000000e+03 8.025989367220398663e+01
1.261000000000000000e+03 2.800393014522905588e+01
1.262000000000000000e+03 8.334170933610087317e+00
1.263000000000000000e+03 1.891406634854910962e+01
1.264000000000000000e+03 4.158510589211595487e+01
1.265000000000000000e+03 2.933273074688776205e+01
1.266000000000000000e+03 1.180668173912972740e+01
1.267000000000000000e+03 1.781047402489514297e+01
1.268000000000000000e+03 2.800936917012440830e+01
1.269000000000000000e+03 4.586095298755310523e+01
1.270000000000000000e+03 3.419975428571657972e+01
1.271000000000000000e+03 6.035335780082728263e+01
1.272000000000000000e+03 9.961759809128604104e+01
1.273000000000000000e+03 7.309315721991937664e+01
1.274000000000000000e+03 8.641407913043741473e+01
1.275000000000000000e+03 6.382151991701248051e+01
1.276000000000000000e+03 7.731653151452292150e+01
1.277000000000000000e+03 8.381233921161467038e+01
1.278000000000000000e+03 1.171836334024906279e+02
1.279000000000000000e+03 4.508122917012183706e+01
1.280000000000000000e+03 3.849201958506159826e+01
1.281000000000000000e+03 8.451628049792250863e+01
1.282000000000000000e+03 7.755482912863091371e+01
1.283000000000000000e+03 9.122704796680842776e+01
1.284000000000000000e+03 9.656627840249160499e+01
1.285000000000000000e+03 7.902718257261425094e+01
1.286000000000000000e+03 4.895134429460428294e+01
1.287000000000000000e+03 1.121896091284726893e+00
1.288000000000000000e+03 5.925321697096000761e+00
1.289000000000000000e+03 3.137729132780192742e+01
1.290000000000000000e+03 1.026477582572584026e+02
1.291000000000000000e+03 3.888251877593555861e+01
1.292000000000000000e+03 4.520907421161788164e+01
1.293000000000000000e+03 7.462989234439923791e+01
1.294000000000000000e+03 7.553878377593377991e+01
1.295000000000000000e+03 6.851941979296096008e+01
1.296000000000000000e+03 5.688165327800803794e+01
1.297000000000000000e+03 8.089716141079242107e+01
1.298000000000000000e+03 6.648443937759746802e+01
1.299000000000000000e+03 6.283518318840580719e+01
1.300000000000000000e+03 5.425192802904251010e+01
1.301000000000000000e+03 4.365445628629910857e+01
1.302000000000000000e+03 7.317432147303199486e+01
1.303000000000000000e+03 3.413374523809603289e+01
1.304000000000000000e+03 4.901153912862837103e+01
1.305000000000000000e+03 1.183629787551685553e+01
1.306000000000000000e+03 7.872051535269710598e+01
1.307000000000000000e+03 2.406341929460362294e+01
1.308000000000000000e+03 4.656870877593195246e+01
1.309000000000000000e+03 3.741884539419163502e+01
1.310000000000000000e+03 4.800471649376621741e+00
1.311000000000000000e+03 0.000000000000000000e+00
1.312000000000000000e+03 0.000000000000000000e+00
1.313000000000000000e+03 0.000000000000000000e+00
1.314000000000000000e+03 0.000000000000000000e+00
1.315000000000000000e+03 0.000000000000000000e+00
1.316000000000000000e+03 0.000000000000000000e+00
1.317000000000000000e+03 0.000000000000000000e+00
1.318000000000000000e+03 0.000000000000000000e+00
1.319000000000000000e+03 0.000000000000000000e+00
1.320000000000000000e+03 0.000000000000000000e+00
1.321000000000000000e+03 0.000000000000000000e+00
1.322000000000000000e+03 0.000000000000000000e+00
1.323000000000000000e+03 0.000000000000000000e+00
1.324000000000000000e+03 0.000000000000000000e+00
1.325000000000000000e+03 0.000000000000000000e+00
1.326000000000000000e+03 0.000000000000000000e+00
1.327000000000000000e+03 0.000000000000000000e+00
1.328000000000000000e+03 0.000000000000000000e+00
1.329000000000000000e+03 0.000000000000000000e+00
1.330000000000000000e+03 0.000000000000000000e+00
1.331000000000000000e+03 0.000000000000000000e+00
1.332000000000000000e+03 0.000000000000000000e+00
1.333000000000000000e+03 0.000000000000000000e+00
1.334000000000000000e+03 0.000000000000000000e+00
1.335000000000000000e+03 0.000000000000000000e+00
1.336000000000000000e+03 0.000000000000000000e+00
1.337000000000000000e+03 0.000000000000000000e+00
1.338000000000000000e+03 0.000000000000000000e+00
1.339000000000000000e+03 0.000000000000000000e+00
1.340000000000000000e+03 0.000000000000000000e+00
1.341000000000000000e+03 0.000000000000000000e+00
1.342000000000000000e+03 0.000000000000000000e+00
1.343000000000000000e+03 0.000000000000000000e+00
1.344000000000000000e+03 0.000000000000000000e+00
1.345000000000000000e+03 0.000000000000000000e+00
1.346000000000000000e+03 0.000000000000000000e+00
1.347000000000000000e+03 0.000000000000000000e+00
1.348000000000000000e+03 0.000000000000000000e+00
1.349000000000000000e+03 0.000000000000000000e+00
1.350000000000000000e+03 0.000000000000000000e+00
1.351000000000000000e+03 0.000000000000000000e+00
1.352000000000000000e+03 0.000000000000000000e+00
1.353000000000000000e+03 0.000000000000000000e+00
1.354000000000000000e+03 0.000000000000000000e+00
1.355000000000000000e+03 0.000000000000000000e+00
1.356000000000000000e+03 0.000000000000000000e+00
1.357000000000000000e+03 0.000000000000000000e+00
1.358000000000000000e+03 0.000000000000000000e+00
1.359000000000000000e+03 0.000000000000000000e+00
1.360000000000000000e+03 0.000000000000000000e+00
1.361000000000000000e+03 0.000000000000000000e+00
1.362000000000000000e+03 0.000000000000000000e+00
1.363000000000000000e+03 0.000000000000000000e+00
1.364000000000000000e+03 0.000000000000000000e+00
1.365000000000000000e+03 0.000000000000000000e+00
1.366000000000000000e+03 0.000000000000000000e+00
1.367000000000000000e+03 0.000000000000000000e+00
1.368000000000000000e+03 0.000000000000000000e+00
1.369000000000000000e+03 0.000000000000000000e+00
1.370000000000000000e+03 0.000000000000000000e+00
1.371000000000000000e+03 0.000000000000000000e+00
1.372000000000000000e+03 0.000000000000000000e+00
1.373000000000000000e+03 0.000000000000000000e+00
1.374000000000000000e+03 0.000000000000000000e+00
1.375000000000000000e+03 0.000000000000000000e+00
1.376000000000000000e+03 0.000000000000000000e+00
1.377000000000000000e+03 0.000000000000000000e+00
1.378000000000000000e+03 0.000000000000000000e+00
1.379000000000000000e+03 0.000000000000000000e+00
1.380000000000000000e+03 0.000000000000000000e+00
1.381000000000000000e+03 0.000000000000000000e+00
1.382000000000000000e+03 0.000000000000000000e+00
1.383000000000000000e+03 0.000000000000000000e+00
1.384000000000000000e+03 0.000000000000000000e+00
1.385000000000000000e+03 0.000000000000000000e+00
1.386000000000000000e+03 0.000000000000000000e+00
1.387000000000000000e+03 0.000000000000000000e+00
1.388000000000000000e+03 0.000000000000000000e+00
1.389000000000000000e+03 0.000000000000000000e+00
1.390000000000000000e+03 0.000000000000000000e+00
1.391000000000000000e+03 0.000000000000000000e+00
1.392000000000000000e+03 0.000000000000000000e+00
1.393000000000000000e+03 0.000000000000000000e+00
1.394000000000000000e+03 0.000000000000000000e+00
1.395000000000000000e+03 0.000000000000000000e+00
1.396000000000000000e+03 0.000000000000000000e+00
1.397000000000000000e+03 0.000000000000000000e+00
1.398000000000000000e+03 0.000000000000000000e+00
1.399000000000000000e+03 0.000000000000000000e+00
1.400000000000000000e+03 0.000000000000000000e+00
1.401000000000000000e+03 0.000000000000000000e+00
1.402000000000000000e+03 0.000000000000000000e+00
1.403000000000000000e+03 0.000000000000000000e+00
1.404000000000000000e+03 0.000000000000000000e+00
1.405000000000000000e+03 0.000000000000000000e+00
1.406000000000000000e+03 0.000000000000000000e+00
1.407000000000000000e+03 0.000000000000000000e+00
1.408000000000000000e+03 0.000000000000000000e+00
1.409000000000000000e+03 0.000000000000000000e+00
1.410000000000000000e+03 0.000000000000000000e+00
1.411000000000000000e+03 0.000000000000000000e+00
1.412000000000000000e+03 0.000000000000000000e+00
1.413000000000000000e+03 0.000000000000000000e+00
1.414000000000000000e+03 0.000000000000000000e+00
1.415000000000000000e+03 0.000000000000000000e+00
1.416000000000000000e+03 0.000000000000000000e+00
1.417000000000000000e+03 0.000000000000000000e+00
1.418000000000000000e+03 0.000000000000000000e+00
1.419000000000000000e+03 0.000000000000000000e+00
1.420000000000000000e+03 0.000000000000000000e+00
1.421000000000000000e+03 0.000000000000000000e+00
1.422000000000000000e+03 0.000000000000000000e+00
1.423000000000000000e+03 0.000000000000000000e+00
1.424000000000000000e+03 0.000000000000000000e+00
1.425000000000000000e+03 0.000000000000000000e+00
1.426000000000000000e+03 0.000000000000000000e+00
1.427000000000000000e+03 0.000000000000000000e+00
1.428000000000000000e+03 0.000000000000000000e+00
1.429000000000000000e+03 0.000000000000000000e+00
1.430000000000000000e+03 0.000000000000000000e+00
1.431000000000000000e+03 0.000000000000000000e+00
1.432000000000000000e+03 0.000000000000000000e+00
1.433000000000000000e+03 0.000000000000000000e+00
1.434000000000000000e+03 0.000000000000000000e+00
1.435000000000000000e+03 0.000000000000000000e+00
1.436000000000000000e+03 0.000000000000000000e+00
1.437000000000000000e+03 0.000000000000000000e+00
1.438000000000000000e+03 0.000000000000000000e+00
1.439000000000000000e+03 0.000000000000000000e+00
1.440000000000000000e+03 0.000000000000000000e+00
1.441000000000000000e+03 0.000000000000000000e+00
1.442000000000000000e+03 0.000000000000000000e+00
1.443000000000000000e+03 0.000000000000000000e+00
1.444000000000000000e+03 0.000000000000000000e+00
1.445000000000000000e+03 0.000000000000000000e+00
1.446000000000000000e+03 0.000000000000000000e+00
1.447000000000000000e+03 0.000000000000000000e+00
1.448000000000000000e+03 0.000000000000000000e+00
1.449000000000000000e+03 0.000000000000000000e+00
1.450000000000000000e+03 0.000000000000000000e+00
1.451000000000000000e+03 0.000000000000000000e+00
1.452000000000000000e+03 0.000000000000000000e+00
1.453000000000000000e+03 0.000000000000000000e+00
1.454000000000000000e+03 0.000000000000000000e+00
1.455000000000000000e+03 0.000000000000000000e+00
1.456000000000000000e+03 0.000000000000000000e+00
1.457000000000000000e+03 0.000000000000000000e+00
1.458000000000000000e+03 0.000000000000000000e+00
1.459000000000000000e+03 0.000000000000000000e+00
1.460000000000000000e+03 0.000000000000000000e+00
1.461000000000000000e+03 0.000000000000000000e+00
1.462000000000000000e+03 0.000000000000000000e+00
1.463000000000000000e+03 0.000000000000000000e+00
1.464000000000000000e+03 0.000000000000000000e+00
1.465000000000000000e+03 0.000000000000000000e+00
1.466000000000000000e+03 0.000000000000000000e+00
1.467000000000000000e+03 0.000000000000000000e+00
1.468000000000000000e+03 0.000000000000000000e+00
1.469000000000000000e+03 0.000000000000000000e+00
1.470000000000000000e+03 0.000000000000000000e+00
1.471000000000000000e+03 0.000000000000000000e+00
1.472000000000000000e+03 0.000000000000000000e+00
1.473000000000000000e+03 0.000000000000000000e+00
1.474000000000000000e+03 0.000000000000000000e+00
1.475000000000000000e+03 0.000000000000000000e+00
1.476000000000000000e+03 0.000000000000000000e+00
1.477000000000000000e+03 0.000000000000000000e+00
1.478000000000000000e+03 0.000000000000000000e+00
1.479000000000000000e+03 0.000000000000000000e+00
1.480000000000000000e+03 0.000000000000000000e+00
1.481000000000000000e+03 0.000000000000000000e+00
1.482000000000000000e+03 0.000000000000000000e+00
1.483000000000000000e+03 0.000000000000000000e+00
1.484000000000000000e+03 0.000000000000000000e+00
1.485000000000000000e+03 0.000000000000000000e+00
1.486000000000000000e+03 0.000000000000000000e+00
1.487000000000000000e+03 0.000000000000000000e+00
1.488000000000000000e+03 0.000000000000000000e+00
1.489000000000000000e+03 0.000000000000000000e+00
1.490000000000000000e+03 0.000000000000000000e+00
1.491000000000000000e+03 0.000000000000000000e+00
1.492000000000000000e+03 0.000000000000000000e+00
1.493000000000000000e+03 0.000000000000000000e+00
1.494000000000000000e+03 0.000000000000000000e+00
1.495000000000000000e+03 0.000000000000000000e+00
1.496000000000000000e+03 0.000000000000000000e+00
1.497000000000000000e+03 0.000000000000000000e+00
1.498000000000000000e+03 0.000000000000000000e+00
1.499000000000000000e+03 0.000000000000000000e+00
1.500000000000000000e+03 0.000000000000000000e+00
