1.010000000000000000e+02 0.000000000000000000e+00
1.020000000000000000e+02 0.000000000000000000e+00
1.030000000000000000e+02 0.000000000000000000e+00
1.040000000000000000e+02 0.000000000000000000e+00
1.050000000000000000e+02 0.000000000000000000e+00
1.060000000000000000e+02 0.000000000000000000e+00
1.070000000000000000e+02 0.000000000000000000e+00
1.080000000000000000e+02 0.000000000000000000e+00
1.090000000000000000e+02 0.000000000000000000e+00
1.100000000000000000e+02 0.000000000000000000e+00
1.110000000000000000e+02 0.000000000000000000e+00
1.120000000000000000e+02 0.000000000000000000e+00
1.130000000000000000e+02 0.000000000000000000e+00
1.140000000000000000e+02 0.000000000000000000e+00
1.150000000000000000e+02 0.000000000000000000e+00
1.160000000000000000e+02 0.000000000000000000e+00
1.170000000000000000e+02 3.393033757726608535e+00
1.180000000000000000e+02 3.157293651524564204e+00
1.190000000000000000e+02 7.037450762289959982e+01
1.200000000000000000e+02 1.502817494710643018e+02
1.210000000000000000e+02 2.312410556316114594e+02
1.220000000000000000e+02 3.640852393486835581e+02
1.230000000000000000e+02 5.218172711263225665e+02
1.240000000000000000e+02 6.741751286869953219e+02
1.250000000000000000e+02 8.363589295166980264e+02
1.260000000000000000e+02 1.039242311903773953e+03
1.270000000000000000e+02 1.219841513171541465e+03
1.280000000000000000e+02 1.323458614187927424e+03
1.290000000000000000e+02 1.331542161758606426e+03
1.300000000000000000e+02 1.212661319850651807e+03
1.310000000000000000e+02 1.015689920555900358e+03
1.320000000000000000e+02 7.972070296142686630e+02
1.330000000000000000e+02 6.281607121966410432e+02
1.340000000000000000e+02 5.398529615847329524e+02
1.350000000000000000e+02 4.931764391619992693e+02
1.360000000000000000e+02 4.402843037751504767e+02
1.370000000000000000e+02 4.181056551337896394e+02
1.380000000000000000e+02 4.361136396101196055e+02
1.390000000000000000e+02 5.076895281062024310e+02
1.400000000000000000e+02 5.396157514830947548e+02
1.410000000000000000e+02 5.549717124429696469e+02
1.420000000000000000e+02 5.506542424393283000e+02
1.430000000000000000e+02 5.147527713752330101e+02
1.440000000000000000e+02 4.916977463500621752e+02
1.450000000000000000e+02 4.713209104542626733e+02
1.460000000000000000e+02 4.421098171748603249e+02
1.470000000000000000e+02 3.952939483616754046e+02
1.480000000000000000e+02 3.124718585978008605e+02
1.490000000000000000e+02 2.583422253266957114e+02
1.500000000000000000e+02 2.159174125051850126e+02
1.510000000000000000e+02 1.595881297448655687e+02
1.520000000000000000e+02 1.140523942667493031e+02
1.530000000000000000e+02 7.143237057871813533e+01
1.540000000000000000e+02 4.957846991288111838e+01
1.550000000000000000e+02 4.245775696328601612e+01
1.560000000000000000e+02 8.704805651182015325e+00
1.570000000000000000e+02 2.011620460070527372e+01
1.580000000000000000e+02 1.513759956233153048e+01
1.590000000000000000e+02 4.943135359394298156e+00
1.600000000000000000e+02 1.280131831362789008e+01
1.610000000000000000e+02 7.033425001037187485e+00
1.620000000000000000e+02 1.604443637080049356e+01
1.630000000000000000e+02 1.496276001659407839e+01
1.640000000000000000e+02 1.609137856876145278e+01
1.650000000000000000e+02 3.217126823895461030e+01
1.660000000000000000e+02 2.625009586600289779e+01
1.670000000000000000e+02 1.086544841941510242e+01
1.680000000000000000e+02 4.639453432897673757e+00
1.690000000000000000e+02 2.659605980709415007e+01
1.700000000000000000e+02 3.335516912466292183e+01
1.710000000000000000e+02 3.742808076332705269e+01
1.720000000000000000e+02 4.315679337896707324e+01
1.730000000000000000e+02 3.215049940261342698e+01
1.740000000000000000e+02 2.879030095208462470e+01
1.750000000000000000e+02 2.143849712092929138e+01
1.760000000000000000e+02 2.178503244347636780e+01
1.770000000000000000e+02 4.770193960182527348e+01
1.780000000000000000e+02 5.959385035469825453e+01
1.790000000000000000e+02 7.024429343289774863e+01
1.800000000000000000e+02 7.455737654635973399e+01
1.810000000000000000e+02 7.511308301182315006e+01
1.820000000000000000e+02 1.111329100808964938e+02
1.830000000000000000e+02 1.505365397635345914e+02
1.840000000000000000e+02 1.863766325658575340e+02
1.850000000000000000e+02 2.123156454055174152e+02
1.860000000000000000e+02 2.169757213026344118e+02
1.870000000000000000e+02 2.533029503422528705e+02
1.880000000000000000e+02 3.047855094586184919e+02
1.890000000000000000e+02 3.500687853557349172e+02
1.900000000000000000e+02 3.806703559634933640e+02
1.910000000000000000e+02 3.996577302778931085e+02
1.920000000000000000e+02 4.215091914125699759e+02
1.930000000000000000e+02 4.302153569383946206e+02
1.940000000000000000e+02 4.090561240149317541e+02
1.950000000000000000e+02 3.756333318606095304e+02
1.960000000000000000e+02 3.194687254511511014e+02
1.970000000000000000e+02 2.783991549471064673e+02
1.980000000000000000e+02 2.725017106202032551e+02
1.990000000000000000e+02 2.756084453225471407e+02
2.000000000000000000e+02 2.576334223397633991e+02
2.010000000000000000e+02 2.440604929060361314e+02
2.020000000000000000e+02 2.358869878033604266e+02
2.030000000000000000e+02 2.168806332296202299e+02
2.040000000000000000e+02 2.098760971582659067e+02
2.050000000000000000e+02 1.993300696328562651e+02
2.060000000000000000e+02 1.815869974486623448e+02
2.070000000000000000e+02 1.610647679112218498e+02
2.080000000000000000e+02 1.514466021779713003e+02
2.090000000000000000e+02 1.423093065753992903e+02
2.100000000000000000e+02 1.353604995021779871e+02
2.110000000000000000e+02 1.305350240406555713e+02
2.120000000000000000e+02 1.237539751088985440e+02
2.130000000000000000e+02 1.303634574569591678e+02
2.140000000000000000e+02 1.540458309894211766e+02
2.150000000000000000e+02 1.777326850653389556e+02
2.160000000000000000e+02 1.860247575399295670e+02
2.170000000000000000e+02 1.955075609417134217e+02
2.180000000000000000e+02 2.322539403858119726e+02
2.190000000000000000e+02 2.560040670192908010e+02
2.200000000000000000e+02 2.559192626218622593e+02
2.210000000000000000e+02 3.129274483717074418e+02
2.220000000000000000e+02 3.690422054345571610e+02
2.230000000000000000e+02 4.179792821406344956e+02
2.240000000000000000e+02 4.786796424393278926e+02
2.250000000000000000e+02 5.700376936942551538e+02
2.260000000000000000e+02 6.673337314872436536e+02
2.270000000000000000e+02 7.596574491184396720e+02
2.280000000000000000e+02 8.428863229620402535e+02
2.290000000000000000e+02 9.194690384360097823e+02
2.300000000000000000e+02 9.984389120514418892e+02
2.310000000000000000e+02 1.067039065753992645e+03
2.320000000000000000e+02 1.142783074243052170e+03
2.330000000000000000e+02 1.230410728064718342e+03
2.340000000000000000e+02 1.307280290396183318e+03
2.350000000000000000e+02 1.223650759435918644e+03
2.360000000000000000e+02 1.035575079070734091e+03
2.370000000000000000e+02 8.091398693217175833e+02
2.380000000000000000e+02 5.972281932171729295e+02
2.390000000000000000e+02 4.105118221738226794e+02
2.400000000000000000e+02 2.752502749637009742e+02
2.410000000000000000e+02 1.800859449284389200e+02
2.420000000000000000e+02 1.166697588674544050e+02
2.430000000000000000e+02 9.261369738643426786e+01
2.440000000000000000e+02 7.748742769757313908e+01
2.450000000000000000e+02 6.417472395975953248e+01
2.460000000000000000e+02 4.726665906036049591e+01
2.470000000000000000e+02 2.801917859394454879e+01
2.480000000000000000e+02 5.939101635760212616e+01
2.490000000000000000e+02 5.800717954781179486e+01
2.500000000000000000e+02 4.974103270634589080e+01
2.510000000000000000e+02 5.440828800248905850e+01
2.520000000000000000e+02 4.206709800871187355e+01
2.530000000000000000e+02 4.843367645790122111e+01
2.540000000000000000e+02 4.262859513171567016e+01
2.550000000000000000e+02 2.893622724331044083e+01
2.560000000000000000e+02 2.768702406262967486e+01
2.570000000000000000e+02 1.855964149554008458e+01
2.580000000000000000e+02 7.597594126944377635e+00
2.590000000000000000e+02 1.543468506948710228e+01
2.600000000000000000e+02 3.875287810827625634e+01
2.610000000000000000e+02 3.924665774528092754e+01
2.620000000000000000e+02 5.605475007259888542e+01
2.630000000000000000e+02 6.575624985687619528e+01
2.640000000000000000e+02 6.845000243932777551e+01
2.650000000000000000e+02 7.801891463596763288e+01
2.660000000000000000e+02 8.678142671230025940e+01
2.670000000000000000e+02 1.299983157021357840e+02
2.680000000000000000e+02 1.521303587222567160e+02
2.690000000000000000e+02 1.401851527069072745e+02
2.700000000000000000e+02 1.551729308857083254e+02
2.710000000000000000e+02 1.748461262393692834e+02
2.720000000000000000e+02 1.593585089193109070e+02
2.730000000000000000e+02 1.247043648413190908e+02
2.740000000000000000e+02 9.903148833471571777e+01
2.750000000000000000e+02 6.167659452603123071e+01
2.760000000000000000e+02 3.076601734702302338e+01
2.770000000000000000e+02 1.004457754790531254e+01
2.780000000000000000e+02 4.375311134411945346e+01
2.790000000000000000e+02 5.624713777224650357e+01
2.800000000000000000e+02 5.152345223351308334e+01
2.810000000000000000e+02 5.920885757311724973e+01
2.820000000000000000e+02 6.393665690105802923e+01
2.830000000000000000e+02 4.576492251762772412e+01
2.840000000000000000e+02 2.355289259697182302e+01
2.850000000000000000e+02 4.506511220493962355e+00
2.860000000000000000e+02 3.127737602779523840e+01
2.870000000000000000e+02 6.977144560672057594e+01
2.880000000000000000e+02 7.788140727234998906e+01
2.890000000000000000e+02 1.027975098838418404e+02
2.900000000000000000e+02 1.239896293092720327e+02
2.910000000000000000e+02 1.332842814561294347e+02
2.920000000000000000e+02 1.454101529558189156e+02
2.930000000000000000e+02 1.845351308442237155e+02
2.940000000000000000e+02 2.023568374611077161e+02
2.950000000000000000e+02 2.063171342460070150e+02
2.960000000000000000e+02 2.048918395146234275e+02
2.970000000000000000e+02 1.994744961626217616e+02
2.980000000000000000e+02 1.988703754615225705e+02
2.990000000000000000e+02 1.605264364862073023e+02
3.000000000000000000e+02 1.276674639983407644e+02
3.010000000000000000e+02 1.193288902924705752e+02
3.020000000000000000e+02 1.075469366106617883e+02
3.030000000000000000e+02 1.055136902530069705e+02
3.040000000000000000e+02 1.258001022401990951e+02
3.050000000000000000e+02 1.368359577473554225e+02
3.060000000000000000e+02 1.280118093737038691e+02
3.070000000000000000e+02 1.541659876789050543e+02
3.080000000000000000e+02 1.874737249533292527e+02
3.090000000000000000e+02 2.197949843633352316e+02
3.100000000000000000e+02 2.508427973662384431e+02
3.110000000000000000e+02 2.838264875544496704e+02
3.120000000000000000e+02 3.350331863306370792e+02
3.130000000000000000e+02 3.875109857083606357e+02
3.140000000000000000e+02 4.519199357809598041e+02
3.150000000000000000e+02 5.234314000207433537e+02
3.160000000000000000e+02 5.754811198091672395e+02
3.170000000000000000e+02 6.124517036506945260e+02
3.180000000000000000e+02 6.513707100808969699e+02
3.190000000000000000e+02 6.786677629744865499e+02
3.200000000000000000e+02 6.918216950632643147e+02
3.210000000000000000e+02 7.381906672059723178e+02
3.220000000000000000e+02 8.153653767683048272e+02
3.230000000000000000e+02 8.949602057871802572e+02
3.240000000000000000e+02 9.845326830740492596e+02
3.250000000000000000e+02 1.110313466708152191e+03
3.260000000000000000e+02 1.273042330221945122e+03
3.270000000000000000e+02 1.428766822858330897e+03
3.280000000000000000e+02 1.594481226509024964e+03
3.290000000000000000e+02 1.791056920141050796e+03
3.300000000000000000e+02 2.029793323791750936e+03
3.310000000000000000e+02 2.288295096867875145e+03
3.320000000000000000e+02 2.548986589296830061e+03
3.330000000000000000e+02 2.808366375855625847e+03
3.340000000000000000e+02 3.068196796307821842e+03
3.350000000000000000e+02 3.328594565442860130e+03
3.360000000000000000e+02 3.569445421696740141e+03
3.370000000000000000e+02 3.781642784069691061e+03
3.380000000000000000e+02 3.921997106824307593e+03
3.390000000000000000e+02 3.930860544285419110e+03
3.400000000000000000e+02 3.719694116158476390e+03
3.410000000000000000e+02 3.417952221070099768e+03
3.420000000000000000e+02 3.042593220908523563e+03
3.430000000000000000e+02 2.622077250777847894e+03
3.440000000000000000e+02 2.225715763168808735e+03
3.450000000000000000e+02 1.822883725990453740e+03
3.460000000000000000e+02 1.507730825762288305e+03
3.470000000000000000e+02 1.265495526130232747e+03
3.480000000000000000e+02 1.055744321924907808e+03
3.490000000000000000e+02 8.854496541796283964e+02
3.500000000000000000e+02 7.682332474906693278e+02
3.510000000000000000e+02 6.730851096640420792e+02
3.520000000000000000e+02 5.920575764779073324e+02
3.530000000000000000e+02 5.291938878033594165e+02
3.540000000000000000e+02 4.822893790914758370e+02
3.550000000000000000e+02 4.232907546359690514e+02
3.560000000000000000e+02 3.792855298693209534e+02
3.570000000000000000e+02 3.434935809375653548e+02
3.580000000000000000e+02 2.991023967019294787e+02
3.590000000000000000e+02 2.800842499688865246e+02
3.600000000000000000e+02 2.447829016801493935e+02
3.610000000000000000e+02 2.013816819954369066e+02
3.620000000000000000e+02 1.618486016594072225e+02
3.630000000000000000e+02 1.297454624974069759e+02
3.640000000000000000e+02 1.099467733665214411e+02
3.650000000000000000e+02 1.251863675793402848e+02
3.660000000000000000e+02 1.500207808131095817e+02
3.670000000000000000e+02 1.644443206803567818e+02
3.680000000000000000e+02 1.660862727498963523e+02
3.690000000000000000e+02 1.711400189794651112e+02
3.700000000000000000e+02 1.880648349927405434e+02
3.710000000000000000e+02 2.126439188510991869e+02
3.720000000000000000e+02 2.365346545737394592e+02
3.730000000000000000e+02 2.551897099564405949e+02
3.740000000000000000e+02 2.922074629199503875e+02
3.750000000000000000e+02 3.228042173200577736e+02
3.760000000000000000e+02 3.403073061190621615e+02
3.770000000000000000e+02 3.508194220655328763e+02
3.780000000000000000e+02 3.550557821406347330e+02
3.790000000000000000e+02 3.026193070317369802e+02
3.800000000000000000e+02 2.597466883841524918e+02
3.810000000000000000e+02 2.331343600082969374e+02
3.820000000000000000e+02 1.971228105164904605e+02
3.830000000000000000e+02 1.613144694461724953e+02
3.840000000000000000e+02 1.367876599875542638e+02
3.850000000000000000e+02 1.304318712507778741e+02
3.860000000000000000e+02 1.187924096867860300e+02
3.870000000000000000e+02 9.061457683260729823e+01
3.880000000000000000e+02 1.136453113876793566e+02
3.890000000000000000e+02 1.297559949388092093e+02
3.900000000000000000e+02 1.320559571250777537e+02
3.910000000000000000e+02 1.438426451773496524e+02
3.920000000000000000e+02 1.812279346816020222e+02
3.930000000000000000e+02 2.174122048745068696e+02
3.940000000000000000e+02 2.364448599460690446e+02
3.950000000000000000e+02 2.385112461841558229e+02
3.960000000000000000e+02 2.426075313005596570e+02
3.970000000000000000e+02 2.725432864550920726e+02
3.980000000000000000e+02 2.715036545831606531e+02
3.990000000000000000e+02 2.509942021779714310e+02
4.000000000000000000e+02 2.304871682016180330e+02
4.010000000000000000e+02 2.226847180215678179e+02
4.020000000000000000e+02 2.299922855009334910e+02
4.030000000000000000e+02 2.382940951047500562e+02
4.040000000000000000e+02 2.444673471173787789e+02
4.050000000000000000e+02 2.395007024268822136e+02
4.060000000000000000e+02 2.237723989836131864e+02
4.070000000000000000e+02 2.122597575606718578e+02
4.080000000000000000e+02 2.257044359676416434e+02
4.090000000000000000e+02 2.178936490354694797e+02
4.100000000000000000e+02 2.187697345364026944e+02
4.110000000000000000e+02 2.347288197261981395e+02
4.120000000000000000e+02 2.134779289981333079e+02
4.130000000000000000e+02 1.901178686579550003e+02
4.140000000000000000e+02 1.741576297448664263e+02
4.150000000000000000e+02 1.412669038166366136e+02
4.160000000000000000e+02 8.755763373573952890e+01
4.170000000000000000e+02 4.507585000829728727e+01
4.180000000000000000e+02 9.763039530803123256e+00
4.190000000000000000e+02 2.651256172993178062e+00
4.200000000000000000e+02 2.548433877203903020e+00
4.210000000000000000e+02 6.072245644131047726e+00
4.220000000000000000e+02 1.677458063679731382e+01
4.230000000000000000e+02 8.307795804604735324e+00
4.240000000000000000e+02 2.652923238075463708e+00
4.250000000000000000e+02 8.259762794234610794e+00
4.260000000000000000e+02 3.220613527483919114e+01
4.270000000000000000e+02 1.631132167565331059e+01
4.280000000000000000e+02 2.424122168637390384e+00
4.290000000000000000e+02 3.423626610661675063e+00
4.300000000000000000e+02 1.084262579614266286e+01
4.310000000000000000e+02 2.961035281891692961e+01
4.320000000000000000e+02 5.256206339763490831e+01
4.330000000000000000e+02 6.917139814353831184e+01
4.340000000000000000e+02 7.677702990043555076e+01
4.350000000000000000e+02 8.411268518772024549e+01
4.360000000000000000e+02 1.036134433851891430e+02
4.370000000000000000e+02 1.366026324206596314e+02
4.380000000000000000e+02 1.248754281476872592e+02
4.390000000000000000e+02 1.159821392449699289e+02
4.400000000000000000e+02 1.071798365899188923e+02
4.410000000000000000e+02 8.264106490976955399e+01
4.420000000000000000e+02 5.185875849823686679e+01
4.430000000000000000e+02 4.674236940261352657e+01
4.440000000000000000e+02 2.692429427089771821e+01
4.450000000000000000e+02 4.424982911636426763e+00
4.460000000000000000e+02 5.246470950217618778e+00
4.470000000000000000e+02 3.865831042107385151e+00
4.480000000000000000e+02 9.219346857498283976e-01
4.490000000000000000e+02 5.697169356979757460e+00
4.500000000000000000e+02 1.038185967019286160e+01
4.510000000000000000e+02 6.120415967641637423e+00
4.520000000000000000e+02 7.814582964115428965e+00
4.530000000000000000e+02 2.010810857290974596e+01
4.540000000000000000e+02 2.693799853349923978e+01
4.550000000000000000e+02 3.347391812072180528e+01
4.560000000000000000e+02 4.910957645924077042e+01
4.570000000000000000e+02 4.968786260941713806e+01
4.580000000000000000e+02 5.192980901265299565e+01
4.590000000000000000e+02 5.035808957062850055e+01
4.600000000000000000e+02 4.934307553204730823e+01
4.610000000000000000e+02 4.850342113876781269e+01
4.620000000000000000e+02 4.540403706138535966e+01
4.630000000000000000e+02 5.358251038373770569e+01
4.640000000000000000e+02 5.691472474797760128e+01
4.650000000000000000e+02 5.584354090004146087e+01
4.660000000000000000e+02 5.708192353868479785e+01
4.670000000000000000e+02 6.544871584940858611e+01
4.680000000000000000e+02 7.703089482994597859e+01
4.690000000000000000e+02 7.410184147479783690e+01
4.700000000000000000e+02 6.705007409666052354e+01
4.710000000000000000e+02 5.435070235172128861e+01
4.720000000000000000e+02 3.393702224019914837e+01
4.730000000000000000e+02 2.351073393901686615e+01
4.740000000000000000e+02 4.551287599460793309e+00
4.750000000000000000e+02 1.044846750051900974e+00
4.760000000000000000e+02 1.427157472930958404e+00
4.770000000000000000e+02 1.146458705040449999e+01
4.780000000000000000e+02 3.052815728686905761e+00
4.790000000000000000e+02 2.203236913503469729e+00
4.800000000000000000e+02 1.159090096307826556e+01
4.810000000000000000e+02 2.033340692802335070e+01
4.820000000000000000e+02 2.082333410703166621e+01
4.830000000000000000e+02 1.426171611076529544e+01
4.840000000000000000e+02 5.018710794648622908e+00
4.850000000000000000e+02 3.018281595934592776e+00
4.860000000000000000e+02 2.213971141256845687e+00
4.870000000000000000e+02 9.868011026758020110e-01
4.880000000000000000e+02 1.001325602986920060e+01
4.890000000000000000e+02 1.406352594773953513e+01
4.900000000000000000e+02 1.140938698776190030e+01
4.910000000000000000e+02 7.952429186061005240e+00
4.920000000000000000e+02 6.567484347988390425e+00
4.930000000000000000e+02 6.019085809997922532e+00
4.940000000000000000e+02 4.764218506741342729e+00
4.950000000000000000e+02 3.520137399419330126e+00
4.960000000000000000e+02 1.483373114872454579e+01
4.970000000000000000e+02 2.121565891516278413e+01
4.980000000000000000e+02 1.170111552260460108e+01
4.990000000000000000e+02 1.428847587430005106e+01
5.000000000000000000e+02 2.612846175482283684e+01
5.010000000000000000e+02 2.923819721219668111e+01
5.020000000000000000e+02 2.984200386434337915e+01
5.030000000000000000e+02 3.034128005393025518e+01
5.040000000000000000e+02 1.932694271312984213e+01
5.050000000000000000e+02 5.357585599875497451e+01
5.060000000000000000e+02 4.995452225057106688e+01
5.070000000000000000e+02 4.060448107031730558e+01
5.080000000000000000e+02 5.484258036921782065e+01
5.090000000000000000e+02 6.912986840696939339e+01
5.100000000000000000e+02 7.006871425015557975e+01
5.110000000000000000e+02 9.237253773905823095e+01
5.120000000000000000e+02 1.025718963907902008e+02
5.130000000000000000e+02 1.039616508193317514e+02
5.140000000000000000e+02 1.173579890479147991e+02
5.150000000000000000e+02 1.175046490045620686e+02
5.160000000000000000e+02 1.277016838000410957e+02
5.170000000000000000e+02 1.418775842978630806e+02
5.180000000000000000e+02 1.583582628784731412e+02
5.190000000000000000e+02 1.693321072184195089e+02
5.200000000000000000e+02 1.575699885915784932e+02
5.210000000000000000e+02 1.775405079635006871e+02
5.220000000000000000e+02 1.896614114291641329e+02
5.230000000000000000e+02 2.023223978220289041e+02
5.240000000000000000e+02 2.163741622978018881e+02
5.250000000000000000e+02 2.162371535573534516e+02
5.260000000000000000e+02 2.354354961833652169e+02
5.270000000000000000e+02 2.511018864164240370e+02
5.280000000000000000e+02 2.709443624766659013e+02
5.290000000000000000e+02 2.891364037129229700e+02
5.300000000000000000e+02 2.999505212196631305e+02
5.310000000000000000e+02 3.263287610454254377e+02
5.320000000000000000e+02 3.462189011823265901e+02
5.330000000000000000e+02 3.742805675171121607e+02
5.340000000000000000e+02 4.153302565235421184e+02
5.350000000000000000e+02 4.548378286247661890e+02
5.360000000000000000e+02 4.699966397635344606e+02
5.370000000000000000e+02 4.583623395146238408e+02
5.380000000000000000e+02 4.321323260526859826e+02
5.390000000000000000e+02 3.986167879900434059e+02
5.400000000000000000e+02 3.547799272557558652e+02
5.410000000000000000e+02 3.019399594275033110e+02
5.420000000000000000e+02 2.712204124040650868e+02
5.430000000000000000e+02 2.470618228535874721e+02
5.440000000000000000e+02 2.307478904169256850e+02
5.450000000000000000e+02 2.175682716863718724e+02
5.460000000000000000e+02 2.069877768145997834e+02
5.470000000000000000e+02 2.094743645509230703e+02
5.480000000000000000e+02 2.070378806679111392e+02
5.490000000000000000e+02 1.898946210286184453e+02
5.500000000000000000e+02 1.688545099564402392e+02
5.510000000000000000e+02 1.522399146235219973e+02
5.520000000000000000e+02 1.400118787432598424e+02
5.530000000000000000e+02 1.280222236672889551e+02
5.540000000000000000e+02 1.015329283758556898e+02
5.550000000000000000e+02 9.422760289359065666e+01
5.560000000000000000e+02 9.391256564405713902e+01
5.570000000000000000e+02 8.309556067413400626e+01
5.580000000000000000e+02 8.294658030076752198e+01
5.590000000000000000e+02 8.561022872433103714e+01
5.600000000000000000e+02 6.373833014519821916e+01
5.610000000000000000e+02 5.924207817050434244e+01
5.620000000000000000e+02 6.637343752333538305e+01
5.630000000000000000e+02 4.516688810827636047e+01
5.640000000000000000e+02 6.067076448662113819e+01
5.650000000000000000e+02 5.644317189794652023e+01
5.660000000000000000e+02 5.121130432690313938e+01
5.670000000000000000e+02 5.565531336444716004e+01
5.680000000000000000e+02 6.034432872433104933e+01
5.690000000000000000e+02 5.120712865588053120e+01
5.700000000000000000e+02 5.595619291640738169e+01
5.710000000000000000e+02 6.672174557353260127e+01
5.720000000000000000e+02 7.227856694046879227e+01
5.730000000000000000e+02 7.047931034847545106e+01
5.740000000000000000e+02 6.653217500725993716e+01
5.750000000000000000e+02 6.432301074880730596e+01
5.760000000000000000e+02 5.830491146235225841e+01
5.770000000000000000e+02 5.914176196639687788e+01
5.780000000000000000e+02 5.626829944617303170e+01
5.790000000000000000e+02 4.209474193528332364e+01
5.800000000000000000e+02 2.924877066376295076e+01
5.810000000000000000e+02 2.384777976560882351e+01
5.820000000000000000e+02 1.089807009583088515e+01
5.830000000000000000e+02 6.625646537743516085e+00
5.840000000000000000e+02 1.420497761252860336e+01
5.850000000000000000e+02 1.944259645924076807e+01
5.860000000000000000e+02 1.260026140190795374e+01
5.870000000000000000e+02 1.907651144990654757e+01
5.880000000000000000e+02 1.704086035262414711e+01
5.890000000000000000e+02 1.683246710908312238e+01
5.900000000000000000e+02 1.640554139597620775e+01
5.910000000000000000e+02 2.416758705040429334e+00
5.920000000000000000e+02 3.929337192865875572e+00
5.930000000000000000e+02 4.071156032358518750e+00
5.940000000000000000e+02 3.165849682639680918e-01
5.950000000000000000e+02 3.788096590626217619e+00
5.960000000000000000e+02 6.969588046048558638e+00
5.970000000000000000e+02 6.839348203277212157e+00
5.980000000000000000e+02 1.380195304708568749e+01
5.990000000000000000e+02 1.730232309686786962e+01
6.000000000000000000e+02 1.249772775980086159e+01
6.010000000000000000e+02 1.229488329184857776e+01
6.020000000000000000e+02 2.397874246007057764e+01
6.030000000000000000e+02 1.592018942750438271e+01
6.040000000000000000e+02 3.077422970545709457e+00
6.050000000000000000e+02 2.888701004356107216e+00
6.060000000000000000e+02 3.928061004978585569e+00
6.070000000000000000e+02 6.774635675586059946e+00
6.080000000000000000e+02 9.175357568970623490e-01
6.090000000000000000e+02 1.721761548320273061e+00
6.100000000000000000e+02 2.230990099564109930e-01
6.110000000000000000e+02 2.237715056212445042e+00
6.120000000000000000e+02 7.913786526544395628e+00
6.130000000000000000e+02 2.792458752955816692e+01
6.140000000000000000e+02 2.899417637834473638e+01
6.150000000000000000e+02 3.201467968063046499e+01
6.160000000000000000e+02 3.553809717071152363e+01
6.170000000000000000e+02 3.280505273387252885e+01
6.180000000000000000e+02 3.899743351586837292e+01
6.190000000000000000e+02 6.008085553412176694e+01
6.200000000000000000e+02 6.709882712774799529e+01
6.210000000000000000e+02 7.450664678075115432e+01
6.220000000000000000e+02 7.884315965152468664e+01
6.230000000000000000e+02 8.335464238332340869e+01
6.240000000000000000e+02 9.911943171126489460e+01
6.250000000000000000e+02 1.306356511304712456e+02
6.260000000000000000e+02 1.384245967848990801e+02
6.270000000000000000e+02 1.513280770379585078e+02
6.280000000000000000e+02 1.584878003526240207e+02
6.290000000000000000e+02 1.655086467537853991e+02
6.300000000000000000e+02 1.752494827836547699e+02
6.310000000000000000e+02 1.840962710640943669e+02
6.320000000000000000e+02 2.088454621655261292e+02
6.330000000000000000e+02 2.507434699232528033e+02
6.340000000000000000e+02 2.878908085252024875e+02
6.350000000000000000e+02 3.097018184609006539e+02
6.360000000000000000e+02 3.301135970752966955e+02
6.370000000000000000e+02 3.739379051223566535e+02
6.380000000000000000e+02 4.180627549678505375e+02
6.390000000000000000e+02 4.728336597801299490e+02
6.400000000000000000e+02 5.395423397345515468e+02
6.410000000000000000e+02 6.312219520224050484e+02
6.420000000000000000e+02 7.470569808131112950e+02
6.430000000000000000e+02 8.611542827042744648e+02
6.440000000000000000e+02 9.729996433105142160e+02
6.450000000000000000e+02 1.142376758556318691e+03
6.460000000000000000e+02 1.297326288262134767e+03
6.470000000000000000e+02 1.467115129433728043e+03
6.480000000000000000e+02 1.682785540136901318e+03
6.490000000000000000e+02 1.878969856698470494e+03
6.500000000000000000e+02 2.108199281269449784e+03
6.510000000000000000e+02 2.362965619995853103e+03
6.520000000000000000e+02 2.651354869114298253e+03
6.530000000000000000e+02 2.954364607965155756e+03
6.540000000000000000e+02 3.275731965152458542e+03
6.550000000000000000e+02 3.651073696950846170e+03
6.560000000000000000e+02 3.973471518149764051e+03
6.570000000000000000e+02 4.268572852935075389e+03
6.580000000000000000e+02 4.576554183157025363e+03
6.590000000000000000e+02 4.828936018668327051e+03
6.600000000000000000e+02 4.954060070939638535e+03
6.610000000000000000e+02 4.981000048537648581e+03
6.620000000000000000e+02 4.853756985687617089e+03
6.630000000000000000e+02 4.595562960597265374e+03
6.640000000000000000e+02 4.360252601120098916e+03
6.650000000000000000e+02 4.195578666044389138e+03
6.660000000000000000e+02 4.087384741808378749e+03
6.670000000000000000e+02 4.058084927815805713e+03
6.680000000000000000e+02 4.110536370255133079e+03
6.690000000000000000e+02 4.236713374118621687e+03
6.700000000000000000e+02 4.443719857705869799e+03
6.710000000000000000e+02 4.693679514830944754e+03
6.720000000000000000e+02 4.960811222936539707e+03
6.730000000000000000e+02 5.268189574362163512e+03
6.740000000000000000e+02 5.561803683260729485e+03
6.750000000000000000e+02 5.840255228535876086e+03
6.760000000000000000e+02 6.218838283551126551e+03
6.770000000000000000e+02 6.579604945239573681e+03
6.780000000000000000e+02 6.832401324828872930e+03
6.790000000000000000e+02 7.120317892553413913e+03
6.800000000000000000e+02 7.247082070317362195e+03
6.810000000000000000e+02 7.244140025928231807e+03
6.820000000000000000e+02 7.096968473553209151e+03
6.830000000000000000e+02 6.711555760008312973e+03
6.840000000000000000e+02 6.090756098942137214e+03
6.850000000000000000e+02 5.391134153909993074e+03
6.860000000000000000e+02 4.662321917859389032e+03
6.870000000000000000e+02 3.921901458618556262e+03
6.880000000000000000e+02 3.296777804604868834e+03
6.890000000000000000e+02 2.768796359469008621e+03
6.900000000000000000e+02 2.305646846504880614e+03
6.910000000000000000e+02 1.947280525824522783e+03
6.920000000000000000e+02 1.661572157196187845e+03
6.930000000000000000e+02 1.398458231694667802e+03
6.940000000000000000e+02 1.170851727649864415e+03
6.950000000000000000e+02 1.021159706511823401e+03
6.960000000000000000e+02 9.159236760423109445e+02
6.970000000000000000e+02 7.741521354075887302e+02
6.980000000000000000e+02 6.835381350477009619e+02
6.990000000000000000e+02 5.769221897739093947e+02
7.000000000000000000e+02 5.247143376477918082e+02
7.010000000000000000e+02 4.632480685542376477e+02
7.020000000000000000e+02 3.801975486206152937e+02
7.030000000000000000e+02 3.431413988384165918e+02
7.040000000000000000e+02 3.127537021157452841e+02
7.050000000000000000e+02 2.762551997926186687e+02
7.060000000000000000e+02 2.465123857913302459e+02
7.070000000000000000e+02 2.177019919103928487e+02
7.080000000000000000e+02 1.831425631273337160e+02
7.090000000000000000e+02 1.436398555693840819e+02
7.100000000000000000e+02 1.112295253059531319e+02
7.110000000000000000e+02 1.354478719411035570e+02
7.120000000000000000e+02 1.138601954158880147e+02
7.130000000000000000e+02 9.318615311138766799e+01
7.140000000000000000e+02 9.260092959767723642e+01
7.150000000000000000e+02 8.834947889442007352e+01
7.160000000000000000e+02 8.310002867662267079e+01
7.170000000000000000e+02 5.015836104127821216e+01
7.180000000000000000e+02 5.333853061605528012e+01
7.190000000000000000e+02 5.799005967226695901e+01
7.200000000000000000e+02 4.767153033395609896e+01
7.210000000000000000e+02 3.714033907488060038e+01
7.220000000000000000e+02 3.868831550093364058e+01
7.230000000000000000e+02 2.689507859987563876e+01
7.240000000000000000e+02 2.170952739058288827e+01
7.250000000000000000e+02 2.145104752333540432e+01
7.260000000000000000e+02 9.863536253888973704e+00
7.270000000000000000e+02 2.976252771001952624e+00
7.280000000000000000e+02 1.474110205559016684e+01
7.290000000000000000e+02 3.174883384567091404e+00
7.300000000000000000e+02 5.956961199958667130e+00
7.310000000000000000e+02 9.854393334715904729e+00
7.320000000000000000e+02 5.824614022401687130e+00
7.330000000000000000e+02 4.983890152251042593e+00
7.340000000000000000e+02 9.992195939443764274e+00
7.350000000000000000e+02 7.228389218834421648e+00
7.360000000000000000e+02 2.931473915370163219e+00
7.370000000000000000e+02 9.655867713811932873e+00
7.380000000000000000e+02 1.205660505704214103e+01
7.390000000000000000e+02 9.878257003526256241e+00
7.400000000000000000e+02 4.654948558896450095e+00
7.410000000000000000e+02 6.320435134412003109e+00
7.420000000000000000e+02 1.194405857083593681e+01
7.430000000000000000e+02 3.683443611364251247e+00
7.440000000000000000e+02 7.706397306368168998e+00
7.450000000000000000e+02 1.526587344741758301e+01
7.460000000000000000e+02 1.219962821717449764e+01
7.470000000000000000e+02 3.101748523335452479e+00
7.480000000000000000e+02 9.364114316531930271e+00
7.490000000000000000e+02 2.157262276498666864e+01
7.500000000000000000e+02 1.831683890479139265e+01
7.510000000000000000e+02 4.514663331051592010e+00
7.520000000000000000e+02 1.901514681808919693e+00
7.530000000000000000e+02 9.536414687824180447e+00
7.540000000000000000e+02 1.083833784069695128e+01
7.550000000000000000e+02 2.043972148102052966e+00
7.560000000000000000e+02 7.823388949388084157e+00
7.570000000000000000e+02 9.795414961634183015e+00
7.580000000000000000e+02 6.626696229620356426e+00
7.590000000000000000e+02 3.007559906036090691e+00
7.600000000000000000e+02 1.525163711323086257e+00
7.610000000000000000e+02 1.006008029330015496e+01
7.620000000000000000e+02 6.801049554241869188e+00
7.630000000000000000e+02 4.056119797801742699e+00
7.640000000000000000e+02 5.089939059116371567e+00
7.650000000000000000e+02 3.969666972619784850e+00
7.660000000000000000e+02 1.183616725093323119e+01
7.670000000000000000e+02 1.192001643434972102e+01
7.680000000000000000e+02 5.544131125077855771e+00
7.690000000000000000e+02 1.556238157818333967e+00
7.700000000000000000e+02 3.118841161584710253e+00
7.710000000000000000e+02 5.514034261356418831e+00
7.720000000000000000e+02 9.679356609002249812e+00
7.730000000000000000e+02 4.881385081518266666e+00
7.740000000000000000e+02 1.908214375648206840e+01
7.750000000000000000e+02 9.189086218626878022e+00
7.760000000000000000e+02 4.626170957684992757e+00
7.770000000000000000e+02 1.156911048537642017e+01
7.780000000000000000e+02 9.575522277535821303e+00
7.790000000000000000e+02 5.669632087948576427e+00
7.800000000000000000e+02 9.379007104334977640e+00
7.810000000000000000e+02 1.896760175482262056e+01
7.820000000000000000e+02 7.358452608587293220e+00
7.830000000000000000e+02 2.599592852520626884e+00
7.840000000000000000e+02 5.554673982576444402e+00
7.850000000000000000e+02 3.255727718373937485e+00
7.860000000000000000e+02 9.636058686994259048e+00
7.870000000000000000e+02 1.441459616054776305e+01
7.880000000000000000e+02 3.133775017420241227e+00
7.890000000000000000e+02 2.859572109728252709e+00
7.900000000000000000e+02 1.505426327629133887e+01
7.910000000000000000e+02 1.810151503940241824e+01
7.920000000000000000e+02 8.914378130678274559e+00
7.930000000000000000e+02 8.236501676415555195e+00
7.940000000000000000e+02 3.379423870385795503e+00
7.950000000000000000e+02 9.367089050404098671e+00
7.960000000000000000e+02 1.873398285625435022e+01
7.970000000000000000e+02 3.050980449605917144e+01
7.980000000000000000e+02 3.201139796515276004e+01
7.990000000000000000e+02 2.791657850653380279e+01
8.000000000000000000e+02 2.566957648413220028e+01
8.010000000000000000e+02 1.325937024476264270e+01
8.020000000000000000e+02 1.269534976975709739e+01
8.030000000000000000e+02 3.061300710640946932e+01
8.040000000000000000e+02 3.851017126322339834e+01
8.050000000000000000e+02 3.396717976560881169e+01
8.060000000000000000e+02 2.890686785106819201e+01
8.070000000000000000e+02 2.881985764364242542e+01
8.080000000000000000e+02 2.836390123833219690e+01
8.090000000000000000e+02 1.333004028624704418e+01
8.100000000000000000e+02 2.931672488073116511e+01
8.110000000000000000e+02 3.555519975943567346e+01
8.120000000000000000e+02 2.932760382908132257e+01
8.130000000000000000e+02 2.900009685749898125e+01
8.140000000000000000e+02 3.262964426882432178e+01
8.150000000000000000e+02 1.795578283965971877e+01
8.160000000000000000e+02 3.191573688446339574e+01
8.170000000000000000e+02 3.396011104127777003e+01
8.180000000000000000e+02 3.739089363410074895e+01
8.190000000000000000e+02 3.763952506326496916e+01
8.200000000000000000e+02 3.671875446380435903e+01
8.210000000000000000e+02 4.494849717485998042e+01
8.220000000000000000e+02 3.210069583696314766e+01
8.230000000000000000e+02 3.811589345364073722e+01
8.240000000000000000e+02 4.497249110350569623e+01
8.250000000000000000e+02 5.312029540854435083e+01
8.260000000000000000e+02 5.162803749222094751e+01
8.270000000000000000e+02 4.108433883634081951e+01
8.280000000000000000e+02 4.296945889672389995e+01
8.290000000000000000e+02 5.786791288944210976e+01
8.300000000000000000e+02 4.464199365691727195e+01
8.310000000000000000e+02 4.362447142057256144e+01
8.320000000000000000e+02 4.172950363410088670e+01
8.330000000000000000e+02 3.963461189172365096e+01
8.340000000000000000e+02 4.461956328909167979e+01
8.350000000000000000e+02 4.830566685542420657e+01
8.360000000000000000e+02 4.755420705662725567e+01
8.370000000000000000e+02 5.156264798009141259e+01
8.380000000000000000e+02 6.072684649035495141e+01
8.390000000000000000e+02 6.932237355735333040e+01
8.400000000000000000e+02 6.597041445965528794e+01
8.410000000000000000e+02 6.316683901057911754e+01
8.420000000000000000e+02 8.165359518149793416e+01
8.430000000000000000e+02 1.023589188964949415e+02
8.440000000000000000e+02 1.117037883841528014e+02
8.450000000000000000e+02 1.192376448039826471e+02
8.460000000000000000e+02 1.266533969508399480e+02
8.470000000000000000e+02 1.398572282721423221e+02
8.480000000000000000e+02 1.555024872640531726e+02
8.490000000000000000e+02 1.722184092511927815e+02
8.500000000000000000e+02 2.173575872433106042e+02
8.510000000000000000e+02 2.423049311553619987e+02
8.520000000000000000e+02 2.719382285210542705e+02
8.530000000000000000e+02 3.016623966397015124e+02
8.540000000000000000e+02 3.177277284944007079e+02
8.550000000000000000e+02 3.356237738021163750e+02
8.560000000000000000e+02 3.679825004770794976e+02
8.570000000000000000e+02 3.764075960597263020e+02
8.580000000000000000e+02 3.761854706077577362e+02
8.590000000000000000e+02 3.698372148724330941e+02
8.600000000000000000e+02 3.442406726876812399e+02
8.610000000000000000e+02 3.337405309686787973e+02
8.620000000000000000e+02 3.133904243725369838e+02
8.630000000000000000e+02 2.669202301119864273e+02
8.640000000000000000e+02 2.442099087118855607e+02
8.650000000000000000e+02 2.318242140842150718e+02
8.660000000000000000e+02 1.912125068865382218e+02
8.670000000000000000e+02 1.762665337274425212e+02
8.680000000000000000e+02 1.538840644057253542e+02
8.690000000000000000e+02 1.281545475834886929e+02
8.700000000000000000e+02 1.148720766645921998e+02
8.710000000000000000e+02 1.000061976602367082e+02
8.720000000000000000e+02 8.618222186683277641e+01
8.730000000000000000e+02 8.453975370877401474e+01
8.740000000000000000e+02 6.796820853349970548e+01
8.750000000000000000e+02 4.716265190002131646e+01
8.760000000000000000e+02 3.918145504667080559e+01
8.770000000000000000e+02 3.663792987554462854e+01
8.780000000000000000e+02 2.905800991495558350e+01
8.790000000000000000e+02 2.588214572376663369e+01
8.800000000000000000e+02 1.029132663389341573e+01
8.810000000000000000e+02 1.419101264467939139e+01
8.820000000000000000e+02 2.894021150974693413e+01
8.830000000000000000e+02 2.000796726820135518e+01
8.840000000000000000e+02 7.620720902302483779e+00
8.850000000000000000e+02 1.251639678141851242e+01
8.860000000000000000e+02 1.104926572495334014e+01
8.870000000000000000e+02 1.240032432275463492e+01
8.880000000000000000e+02 1.081000139361276879e+01
8.890000000000000000e+02 5.742749049781841642e+00
8.900000000000000000e+02 2.911884088363939860e+00
8.910000000000000000e+02 8.108026861260910323e+00
8.920000000000000000e+02 4.760333901472601603e+00
8.930000000000000000e+02 1.126496758348816307e+01
8.940000000000000000e+02 2.632528423148713514e+01
8.950000000000000000e+02 2.620630566272581774e+01
8.960000000000000000e+02 4.877365043974361214e+00
8.970000000000000000e+02 2.856735661688429850e+00
8.980000000000000000e+02 6.994069460692831974e+00
8.990000000000000000e+02 1.236872600497821750e+01
9.000000000000000000e+02 1.041210882389545667e+01
9.010000000000000000e+02 9.393353734494843010e+00
9.020000000000000000e+02 3.821183215515372211e+00
9.030000000000000000e+02 5.774161097697827927e+00
9.040000000000000000e+02 2.167669765401459614e+01
9.050000000000000000e+02 3.880131188757588490e+01
9.060000000000000000e+02 2.764836535366246650e+01
9.070000000000000000e+02 4.933347158058764670e+00
9.080000000000000000e+02 3.969800257226911433e-01
9.090000000000000000e+02 4.428479881144668617e+00
9.100000000000000000e+02 1.936443518357157956e+01
9.110000000000000000e+02 2.566977452509331314e+01
9.120000000000000000e+02 1.960323772246424312e+01
9.130000000000000000e+02 2.520546429371492891e+01
9.140000000000000000e+02 4.056470400456259995e+01
9.150000000000000000e+02 4.623140015971782191e+01
9.160000000000000000e+02 4.921708515868103717e+01
9.170000000000000000e+02 8.111875489008828310e+01
9.180000000000000000e+02 1.015600207840704456e+02
9.190000000000000000e+02 1.312440438290819031e+02
9.200000000000000000e+02 1.455769397635353641e+02
9.210000000000000000e+02 1.749797808545962141e+02
9.220000000000000000e+02 2.092393184194156390e+02
9.230000000000000000e+02 2.424182203484737101e+02
9.240000000000000000e+02 2.934479837170700307e+02
9.250000000000000000e+02 3.230747609624568213e+02
9.260000000000000000e+02 3.583698981953948532e+02
9.270000000000000000e+02 3.604061325451150424e+02
9.280000000000000000e+02 4.080969255341206576e+02
9.290000000000000000e+02 4.612231727027592569e+02
9.300000000000000000e+02 4.908020608172581092e+02
9.310000000000000000e+02 5.315625677660242445e+02
9.320000000000000000e+02 5.929182578718125569e+02
9.330000000000000000e+02 5.928683668326079896e+02
9.340000000000000000e+02 6.193782167150562827e+02
9.350000000000000000e+02 6.195893266542207130e+02
9.360000000000000000e+02 6.017940830740506044e+02
9.370000000000000000e+02 6.008765751970139490e+02
9.380000000000000000e+02 5.892353247251594439e+02
9.390000000000000000e+02 5.547760773076124678e+02
9.400000000000000000e+02 5.358335607631678386e+02
9.410000000000000000e+02 4.711725533291856891e+02
9.420000000000000000e+02 4.394035518564609788e+02
9.430000000000000000e+02 3.772488256532541868e+02
9.440000000000000000e+02 3.227375931549468646e+02
9.450000000000000000e+02 2.969557459863098643e+02
9.460000000000000000e+02 2.742780013690097007e+02
9.470000000000000000e+02 2.406070200373362979e+02
9.480000000000000000e+02 2.158042538270067041e+02
9.490000000000000000e+02 1.892539114499067807e+02
9.500000000000000000e+02 1.650896770634593054e+02
9.510000000000000000e+02 1.383363969093548747e+02
9.520000000000000000e+02 1.090021816842981082e+02
9.530000000000000000e+02 1.025671050497718255e+02
9.540000000000000000e+02 9.149791163659003246e+01
9.550000000000000000e+02 6.247938161377327759e+01
9.560000000000000000e+02 5.356552093737040821e+01
9.570000000000000000e+02 4.097688040033196444e+01
9.580000000000000000e+02 3.071316999377735968e+01
9.590000000000000000e+02 3.525008892575693409e+01
9.600000000000000000e+02 3.299355687824105132e+01
9.610000000000000000e+02 2.195276029247049010e+01
9.620000000000000000e+02 1.356874029661896941e+01
9.630000000000000000e+02 8.689626662103101751e+00
9.640000000000000000e+02 9.711774685749398062e-01
9.650000000000000000e+02 5.103254770902121429e-01
9.660000000000000000e+02 3.918659048330145112e+00
9.670000000000000000e+02 8.050195533914125789e+00
9.680000000000000000e+02 8.251459023646226854e+00
9.690000000000000000e+02 2.546264253266928179e+01
9.700000000000000000e+02 2.717082040448057612e+01
9.710000000000000000e+02 2.628619007467321822e+01
9.720000000000000000e+02 3.816660096452983453e+01
9.730000000000000000e+02 5.143289138531699223e+01
9.740000000000000000e+02 6.374319524372518231e+01
9.750000000000000000e+02 8.992231679319611715e+01
9.760000000000000000e+02 1.244186699917045615e+02
9.770000000000000000e+02 1.426511756689484685e+02
9.780000000000000000e+02 1.677146862891520982e+02
9.790000000000000000e+02 2.092674411032754449e+02
9.800000000000000000e+02 2.572163939639060573e+02
9.810000000000000000e+02 3.195807910392052804e+02
9.820000000000000000e+02 3.693238596847763233e+02
9.830000000000000000e+02 4.434917880522686460e+02
9.840000000000000000e+02 5.214332205766404513e+02
9.850000000000000000e+02 6.117342595603455493e+02
9.860000000000000000e+02 7.281624613565603568e+02
9.870000000000000000e+02 8.471081514208628960e+02
9.880000000000000000e+02 9.783668380004122582e+02
9.890000000000000000e+02 1.170093819954363198e+03
9.900000000000000000e+02 1.396644800248906677e+03
9.910000000000000000e+02 1.682214543248290965e+03
9.920000000000000000e+02 2.012512853142503673e+03
9.930000000000000000e+02 2.394190423356152223e+03
9.940000000000000000e+02 2.846436362372965505e+03
9.950000000000000000e+02 3.336288771624157562e+03
9.960000000000000000e+02 3.890232784899414128e+03
9.970000000000000000e+02 4.525114445965539744e+03
9.980000000000000000e+02 5.184081792574187602e+03
9.990000000000000000e+02 5.907611902924738388e+03
1.000000000000000000e+03 6.645193334301084178e+03
1.001000000000000000e+03 7.544713885892074359e+03
1.002000000000000000e+03 8.372518794605819494e+03
1.003000000000000000e+03 9.255812701863322218e+03
1.004000000000000000e+03 1.024023755186722701e+04
1.005000000000000000e+03 1.121768921161824801e+04
1.006000000000000000e+03 1.203963311203319245e+04
1.007000000000000000e+03 1.253787192546584083e+04
1.008000000000000000e+03 1.249731989626556788e+04
1.009000000000000000e+03 1.195032460580910629e+04
1.010000000000000000e+03 1.093395690871372062e+04
1.011000000000000000e+03 9.606802919087087503e+03
1.012000000000000000e+03 8.253227950207461618e+03
1.013000000000000000e+03 7.035751195020797240e+03
1.014000000000000000e+03 6.033659846473017751e+03
1.015000000000000000e+03 5.248640488612862100e+03
1.016000000000000000e+03 4.608253398340239983e+03
1.017000000000000000e+03 4.131714141078842658e+03
1.018000000000000000e+03 3.750562566390038683e+03
1.019000000000000000e+03 3.467924439834025179e+03
1.020000000000000000e+03 3.179557008298765140e+03
1.021000000000000000e+03 2.956070659751032963e+03
1.022000000000000000e+03 2.783961846473034257e+03
1.023000000000000000e+03 2.607367360995845502e+03
1.024000000000000000e+03 2.473613751552794838e+03
1.025000000000000000e+03 2.299482875518660876e+03
1.026000000000000000e+03 2.157204684647315389e+03
1.027000000000000000e+03 2.044332883817430911e+03
1.028000000000000000e+03 1.968296192546581779e+03
1.029000000000000000e+03 1.848321643153518380e+03
1.030000000000000000e+03 1.723139597510379872e+03
1.031000000000000000e+03 1.624537107883817725e+03
1.032000000000000000e+03 1.532387668737054355e+03
1.033000000000000000e+03 1.442985360995859764e+03
1.034000000000000000e+03 1.341060441908715802e+03
1.035000000000000000e+03 1.277345433609956217e+03
1.036000000000000000e+03 1.191520666666671104e+03
1.037000000000000000e+03 1.131288531120334255e+03
1.038000000000000000e+03 1.058546663900413705e+03
1.039000000000000000e+03 9.775111390041438426e+02
1.040000000000000000e+03 9.011434648033200574e+02
1.041000000000000000e+03 8.195433904564324621e+02
1.042000000000000000e+03 7.305828738589167415e+02
1.043000000000000000e+03 6.443248435684600963e+02
1.044000000000000000e+03 5.699001728215804405e+02
1.045000000000000000e+03 5.126366651452268570e+02
1.046000000000000000e+03 4.692994925311165844e+02
1.047000000000000000e+03 4.170940854771831141e+02
1.048000000000000000e+03 3.681646771784240286e+02
1.049000000000000000e+03 3.304561437759313094e+02
1.050000000000000000e+03 2.922837892116201033e+02
1.051000000000000000e+03 2.530365946058106488e+02
1.052000000000000000e+03 2.254098091286303145e+02
1.053000000000000000e+03 2.179059101449268780e+02
1.054000000000000000e+03 2.012417514522838360e+02
1.055000000000000000e+03 1.722032634854772937e+02
1.056000000000000000e+03 1.417657887966792032e+02
1.057000000000000000e+03 1.282830053830226404e+02
1.058000000000000000e+03 1.201821093360999839e+02
1.059000000000000000e+03 1.089150742738587923e+02
1.060000000000000000e+03 9.624018755186439478e+01
1.061000000000000000e+03 7.022010434782698951e+01
1.062000000000000000e+03 6.682397821576762453e+01
1.063000000000000000e+03 6.245677659750965205e+01
1.064000000000000000e+03 3.035599551867387902e+01
1.065000000000000000e+03 2.417210374741191714e+01
1.066000000000000000e+03 2.774409875518682966e+01
1.067000000000000000e+03 2.314362761410688663e+01
1.068000000000000000e+03 1.459224863070575928e+01
1.069000000000000000e+03 1.031955695652174221e+01
1.070000000000000000e+03 8.918142751036805649e+00
1.071000000000000000e+03 2.785337651452075569e+00
1.072000000000000000e+03 1.099803203319494571e+01
1.073000000000000000e+03 7.980074692945724024e+00
1.074000000000000000e+03 3.175246029045677876e+00
1.075000000000000000e+03 7.579201375517785166e+00
1.076000000000000000e+03 1.792765203319505218e+01
1.077000000000000000e+03 9.805426026969747966e+00
1.078000000000000000e+03 6.217824869564616108e+00
1.079000000000000000e+03 1.726340792531117785e+01
1.080000000000000000e+03 1.614878734439830055e+01
1.081000000000000000e+03 2.201936987551942693e+01
1.082000000000000000e+03 1.415983661825728923e+01
1.083000000000000000e+03 1.510567014522803753e+01
1.084000000000000000e+03 4.319629734439700108e+00
1.085000000000000000e+03 9.639546379667681464e+00
1.086000000000000000e+03 4.640186362318882374e+00
1.087000000000000000e+03 3.918482423237339418e+00
1.088000000000000000e+03 1.167198493775952173e+01
1.089000000000000000e+03 3.828067253112446888e+00
1.090000000000000000e+03 7.247740514523046684e+00
1.091000000000000000e+03 1.024699282780123433e+01
1.092000000000000000e+03 1.123039494813144046e+01
1.093000000000000000e+03 1.700329821576763578e+01
1.094000000000000000e+03 1.678524507246352471e+01
1.095000000000000000e+03 5.842726174274358364e+00
1.096000000000000000e+03 1.280539473029003261e+01
1.097000000000000000e+03 1.545183208713594958e+01
1.098000000000000000e+03 3.108773925466160826e+00
1.099000000000000000e+03 1.570398533194947177e+01
1.100000000000000000e+03 2.779057168049800097e+01
1.101000000000000000e+03 2.288248010373307650e+01
1.102000000000000000e+03 3.155958394190901295e+00
1.103000000000000000e+03 1.553672103319486908e+01
1.104000000000000000e+03 2.475706904564314925e+01
1.105000000000000000e+03 1.422549514522949821e+01
1.106000000000000000e+03 1.554839771784172342e+01
1.107000000000000000e+03 1.808956503105572367e+01
1.108000000000000000e+03 1.521742182572719670e+01
1.109000000000000000e+03 2.449058831950258863e+01
1.110000000000000000e+03 1.831000508298761531e+01
1.111000000000000000e+03 1.609268128630730033e+01
1.112000000000000000e+03 1.996156593361025955e+01
1.113000000000000000e+03 1.172118992531149928e+01
1.114000000000000000e+03 1.348720373444000309e+01
1.115000000000000000e+03 2.058143142857122498e+01
1.116000000000000000e+03 1.962674636929499528e+01
1.117000000000000000e+03 2.397954394190872662e+01
1.118000000000000000e+03 3.212192719917018735e+01
1.119000000000000000e+03 2.738869126556066647e+01
1.120000000000000000e+03 2.005706037344411996e+01
1.121000000000000000e+03 1.613309033195007558e+01
1.122000000000000000e+03 1.535291792531230470e+01
1.123000000000000000e+03 3.100454022774268736e+01
1.124000000000000000e+03 3.110999811203310017e+01
1.125000000000000000e+03 2.512487408713659676e+01
1.126000000000000000e+03 2.426438510373415980e+01
1.127000000000000000e+03 2.769759625258791402e+01
1.128000000000000000e+03 3.709331423236623948e+01
1.129000000000000000e+03 3.719115535269767747e+01
1.130000000000000000e+03 2.329030136929423378e+01
1.131000000000000000e+03 4.492416643153538303e+01
1.132000000000000000e+03 4.545468591286273607e+01
1.133000000000000000e+03 4.219028369294647263e+01
1.134000000000000000e+03 2.533397578838202691e+01
1.135000000000000000e+03 2.462351765560195460e+01
1.136000000000000000e+03 3.033684327800845182e+01
1.137000000000000000e+03 1.658657451037432295e+01
1.138000000000000000e+03 2.627145340248980165e+00
1.139000000000000000e+03 1.094329298755354429e+01
1.140000000000000000e+03 2.371257751037346750e+01
1.141000000000000000e+03 2.173100000000000165e+01
1.142000000000000000e+03 2.702373556016648593e+01
1.143000000000000000e+03 3.364884630705405755e+01
1.144000000000000000e+03 1.300492283643945690e+01
1.145000000000000000e+03 3.056730514522930520e+01
1.146000000000000000e+03 1.695321875518393284e+01
1.147000000000000000e+03 2.432131368464509080e+01
1.148000000000000000e+03 3.197328113871643751e+01
1.149000000000000000e+03 2.295673417012395845e+01
1.150000000000000000e+03 1.189762564315513416e+01
1.151000000000000000e+03 2.513438541493326461e+00
1.152000000000000000e+03 1.461356000000020927e+01
1.153000000000000000e+03 1.958993149377614529e+01
1.154000000000000000e+03 2.601849423236545888e+01
1.155000000000000000e+03 9.567627759335991300e+00
1.156000000000000000e+03 8.909257547718432591e+00
1.157000000000000000e+03 2.426745402489491354e+01
1.158000000000000000e+03 2.872789645228221644e+01
1.159000000000000000e+03 2.347700838174248261e+01
1.160000000000000000e+03 1.573470118257162653e+01
1.161000000000000000e+03 1.155754481327807781e+01
1.162000000000000000e+03 1.877135871369337394e+01
1.163000000000000000e+03 3.606162481327876890e+01
1.164000000000000000e+03 4.180603278008316437e+01
1.165000000000000000e+03 3.734532614107884996e+01
1.166000000000000000e+03 3.029930369294553216e+01
1.167000000000000000e+03 2.046013692946040408e+01
1.168000000000000000e+03 1.741117871369286263e+01
1.169000000000000000e+03 2.515220701863383823e+01
1.170000000000000000e+03 3.091007917012455763e+01
1.171000000000000000e+03 3.342477834024868599e+01
1.172000000000000000e+03 2.937451568464742024e+01
1.173000000000000000e+03 2.296936511387181312e+01
1.174000000000000000e+03 3.300641595435612174e+01
1.175000000000000000e+03 3.536867462655636274e+01
1.176000000000000000e+03 2.496648450207467462e+01
1.177000000000000000e+03 2.644251246376817122e+01
1.178000000000000000e+03 2.505686705394228753e+01
1.179000000000000000e+03 1.161639943983395895e+01
1.180000000000000000e+03 8.118476049792906934e+00
1.181000000000000000e+03 1.995448502074719599e+01
1.182000000000000000e+03 2.849139304979251008e+01
1.183000000000000000e+03 2.036483207468797829e+01
1.184000000000000000e+03 1.111777363070542890e+01
1.185000000000000000e+03 1.427684898340238995e+01
1.186000000000000000e+03 8.026313917012188881e+00
1.187000000000000000e+03 9.037917261411626768e+00
1.188000000000000000e+03 6.424265593360193094e+00
1.189000000000000000e+03 1.566830018633530308e+01
1.190000000000000000e+03 1.853748585062243848e+01
1.191000000000000000e+03 1.823277894190874449e+01
1.192000000000000000e+03 2.097593348547702519e+01
1.193000000000000000e+03 2.109637209543564751e+01
1.194000000000000000e+03 2.311140493775993576e+01
1.195000000000000000e+03 2.130861460581008160e+01
1.196000000000000000e+03 1.074545663900420855e+01
1.197000000000000000e+03 4.946864713692530557e+00
1.198000000000000000e+03 3.843070763974798520e+00
1.199000000000000000e+03 2.163395927385850825e+01
1.200000000000000000e+03 6.845520867219541117e+00
1.201000000000000000e+03 1.386434317012544426e+01
1.202000000000000000e+03 1.889302049792543059e+01
1.203000000000000000e+03 1.429011008298751406e+01
1.204000000000000000e+03 3.686591261410355091e+00
1.205000000000000000e+03 5.649475547716794388e+00
1.206000000000000000e+03 9.893903739130543329e+00
1.207000000000000000e+03 1.493131792531184487e+01
1.208000000000000000e+03 2.556942848547716807e+01
1.209000000000000000e+03 2.350336475103775413e+01
1.210000000000000000e+03 1.530653890041497434e+01
1.211000000000000000e+03 1.085628278008337766e+01
1.212000000000000000e+03 2.380234381742650385e+01
1.213000000000000000e+03 1.185422522821614066e+01
1.214000000000000000e+03 8.772474809128651074e+00
1.215000000000000000e+03 8.015866601659856983e+00
1.216000000000000000e+03 1.516051585062214535e+01
1.217000000000000000e+03 1.293292081120320880e+01
1.218000000000000000e+03 3.964686614906658413e+00
1.219000000000000000e+03 3.746477323650822200e+00
1.220000000000000000e+03 1.281284410788371453e+01
1.221000000000000000e+03 1.083316033194890160e+01
1.222000000000000000e+03 6.665492556016467063e+00
1.223000000000000000e+03 3.356405284232345565e+01
1.224000000000000000e+03 1.844114331950157037e+01
1.225000000000000000e+03 8.217028491700940407e+00
1.226000000000000000e+03 2.032663923236408010e+01
1.227000000000000000e+03 2.293243064182194502e+01
1.228000000000000000e+03 3.992434813276496186e+00
1.229000000000000000e+03 7.898580497912887077e-01
1.230000000000000000e+03 1.860991887966731539e+01
1.231000000000000000e+03 2.699415350622380316e+01
1.232000000000000000e+03 2.162759715767619539e+01
1.233000000000000000e+03 2.135237717842283089e+01
1.234000000000000000e+03 2.009095334024902613e+01
1.235000000000000000e+03 4.401766412007185991e+00
1.236000000000000000e+03 4.061936307054805795e+00
1.237000000000000000e+03 1.366164634854732896e+01
1.238000000000000000e+03 1.721535468879668684e+01
1.239000000000000000e+03 1.629848821576760542e+01
1.240000000000000000e+03 2.090561879668019429e+01
1.241000000000000000e+03 1.860603649377588198e+01
1.242000000000000000e+03 2.827592746888101516e+01
1.243000000000000000e+03 1.901617533195200238e+01
1.244000000000000000e+03 1.193189846473016047e+01
1.245000000000000000e+03 1.497178950207432635e+01
1.246000000000000000e+03 1.196984456431577293e+01
1.247000000000000000e+03 1.601756767634883261e+01
1.248000000000000000e+03 1.062893026970943566e+01
1.249000000000000000e+03 8.315800653526947528e+00
1.250000000000000000e+03 1.129941504979201383e+01
1.251000000000000000e+03 2.147903080912856311e+01
1.252000000000000000e+03 1.198150497925233537e+01
1.253000000000000000e+03 7.592222755186685212e+00
1.254000000000000000e+03 2.662970302904460596e+01
1.255000000000000000e+03 1.591314792531072442e+01
1.256000000000000000e+03 2.116357759834481556e+01
1.257000000000000000e+03 2.379693921161918269e+01
1.258000000000000000e+03 1.574346618257260211e+01
1.259000000000000000e+03 1.589542558091264368e+01
1.260000000000000000e+03 1.450650043478273687e+01
1.261000000000000000e+03 1.415979377593387234e+01
1.262000000000000000e+03 8.975874199170364776e+00
1.263000000000000000e+03 2.021742136929555755e+01
1.264000000000000000e+03 2.592021014492750552e+01
1.265000000000000000e+03 2.170525867219912541e+01
1.266000000000000000e+03 2.049847950207481162e+01
1.267000000000000000e+03 3.127609904564243237e+01
1.268000000000000000e+03 1.993356879668125714e+01
1.269000000000000000e+03 1.675987589211634443e+01
1.270000000000000000e+03 1.025742610373368002e+01
1.271000000000000000e+03 9.905754082986979014e+00
1.272000000000000000e+03 1.470868340248962447e+01
1.273000000000000000e+03 1.784635400415031015e+01
1.274000000000000000e+03 2.351716263485531755e+01
1.275000000000000000e+03 1.997667354771778037e+01
1.276000000000000000e+03 1.486433751037252193e+01
1.277000000000000000e+03 2.873418506224143520e+00
1.278000000000000000e+03 2.316653680497820744e+01
1.279000000000000000e+03 2.412713767634844331e+01
1.280000000000000000e+03 1.494814311203249879e+01
1.281000000000000000e+03 1.213069443983401641e+01
1.282000000000000000e+03 1.421681989626557296e+01
1.283000000000000000e+03 1.279499553941913170e+01
1.284000000000000000e+03 1.455049647302894478e+01
1.285000000000000000e+03 7.902950772257315570e+00
1.286000000000000000e+03 1.738875272282029982e-01
1.287000000000000000e+03 0.000000000000000000e+00
1.288000000000000000e+03 0.000000000000000000e+00
1.289000000000000000e+03 0.000000000000000000e+00
1.290000000000000000e+03 0.000000000000000000e+00
1.291000000000000000e+03 0.000000000000000000e+00
1.292000000000000000e+03 0.000000000000000000e+00
1.293000000000000000e+03 0.000000000000000000e+00
1.294000000000000000e+03 0.000000000000000000e+00
1.295000000000000000e+03 0.000000000000000000e+00
1.296000000000000000e+03 0.000000000000000000e+00
1.297000000000000000e+03 0.000000000000000000e+00
1.298000000000000000e+03 0.000000000000000000e+00
1.299000000000000000e+03 0.000000000000000000e+00
1.300000000000000000e+03 0.000000000000000000e+00
1.301000000000000000e+03 0.000000000000000000e+00
1.302000000000000000e+03 0.000000000000000000e+00
1.303000000000000000e+03 0.000000000000000000e+00
1.304000000000000000e+03 0.000000000000000000e+00
1.305000000000000000e+03 0.000000000000000000e+00
1.306000000000000000e+03 0.000000000000000000e+00
1.307000000000000000e+03 0.000000000000000000e+00
1.308000000000000000e+03 0.000000000000000000e+00
1.309000000000000000e+03 0.000000000000000000e+00
1.310000000000000000e+03 0.000000000000000000e+00
1.311000000000000000e+03 0.000000000000000000e+00
1.312000000000000000e+03 0.000000000000000000e+00
1.313000000000000000e+03 0.000000000000000000e+00
1.314000000000000000e+03 0.000000000000000000e+00
1.315000000000000000e+03 0.000000000000000000e+00
1.316000000000000000e+03 0.000000000000000000e+00
1.317000000000000000e+03 0.000000000000000000e+00
1.318000000000000000e+03 0.000000000000000000e+00
1.319000000000000000e+03 0.000000000000000000e+00
1.320000000000000000e+03 0.000000000000000000e+00
1.321000000000000000e+03 0.000000000000000000e+00
1.322000000000000000e+03 0.000000000000000000e+00
1.323000000000000000e+03 0.000000000000000000e+00
1.324000000000000000e+03 0.000000000000000000e+00
1.325000000000000000e+03 0.000000000000000000e+00
1.326000000000000000e+03 0.000000000000000000e+00
1.327000000000000000e+03 0.000000000000000000e+00
1.328000000000000000e+03 0.000000000000000000e+00
1.329000000000000000e+03 0.000000000000000000e+00
1.330000000000000000e+03 0.000000000000000000e+00
1.331000000000000000e+03 0.000000000000000000e+00
1.332000000000000000e+03 0.000000000000000000e+00
1.333000000000000000e+03 0.000000000000000000e+00
1.334000000000000000e+03 0.000000000000000000e+00
1.335000000000000000e+03 0.000000000000000000e+00
1.336000000000000000e+03 0.000000000000000000e+00
1.337000000000000000e+03 0.000000000000000000e+00
1.338000000000000000e+03 0.000000000000000000e+00
1.339000000000000000e+03 0.000000000000000000e+00
1.340000000000000000e+03 0.000000000000000000e+00
1.341000000000000000e+03 0.000000000000000000e+00
1.342000000000000000e+03 0.000000000000000000e+00
1.343000000000000000e+03 0.000000000000000000e+00
1.344000000000000000e+03 0.000000000000000000e+00
1.345000000000000000e+03 0.000000000000000000e+00
1.346000000000000000e+03 0.000000000000000000e+00
1.347000000000000000e+03 0.000000000000000000e+00
1.348000000000000000e+03 0.000000000000000000e+00
1.349000000000000000e+03 0.000000000000000000e+00
1.350000000000000000e+03 0.000000000000000000e+00
1.351000000000000000e+03 0.000000000000000000e+00
1.352000000000000000e+03 0.000000000000000000e+00
1.353000000000000000e+03 0.000000000000000000e+00
1.354000000000000000e+03 0.000000000000000000e+00
1.355000000000000000e+03 0.000000000000000000e+00
1.356000000000000000e+03 0.000000000000000000e+00
1.357000000000000000e+03 0.000000000000000000e+00
1.358000000000000000e+03 0.000000000000000000e+00
1.359000000000000000e+03 0.000000000000000000e+00
1.360000000000000000e+03 0.000000000000000000e+00
1.361000000000000000e+03 0.000000000000000000e+00
1.362000000000000000e+03 0.000000000000000000e+00
1.363000000000000000e+03 0.000000000000000000e+00
1.364000000000000000e+03 0.000000000000000000e+00
1.365000000000000000e+03 0.000000000000000000e+00
1.366000000000000000e+03 0.000000000000000000e+00
1.367000000000000000e+03 0.000000000000000000e+00
1.368000000000000000e+03 0.000000000000000000e+00
1.369000000000000000e+03 0.000000000000000000e+00
1.370000000000000000e+03 0.000000000000000000e+00
1.371000000000000000e+03 0.000000000000000000e+00
1.372000000000000000e+03 0.000000000000000000e+00
1.373000000000000000e+03 0.000000000000000000e+00
1.374000000000000000e+03 0.000000000000000000e+00
1.375000000000000000e+03 0.000000000000000000e+00
1.376000000000000000e+03 0.000000000000000000e+00
1.377000000000000000e+03 0.000000000000000000e+00
1.378000000000000000e+03 0.000000000000000000e+00
1.379000000000000000e+03 0.000000000000000000e+00
1.380000000000000000e+03 0.000000000000000000e+00
1.381000000000000000e+03 0.000000000000000000e+00
1.382000000000000000e+03 0.000000000000000000e+00
1.383000000000000000e+03 0.000000000000000000e+00
1.384000000000000000e+03 0.000000000000000000e+00
1.385000000000000000e+03 0.000000000000000000e+00
1.386000000000000000e+03 0.000000000000000000e+00
1.387000000000000000e+03 0.000000000000000000e+00
1.388000000000000000e+03 0.000000000000000000e+00
1.389000000000000000e+03 0.000000000000000000e+00
1.390000000000000000e+03 0.000000000000000000e+00
1.391000000000000000e+03 0.000000000000000000e+00
1.392000000000000000e+03 0.000000000000000000e+00
1.393000000000000000e+03 0.000000000000000000e+00
1.394000000000000000e+03 0.000000000000000000e+00
1.395000000000000000e+03 0.000000000000000000e+00
1.396000000000000000e+03 0.000000000000000000e+00
1.397000000000000000e+03 0.000000000000000000e+00
1.398000000000000000e+03 0.000000000000000000e+00
1.399000000000000000e+03 0.000000000000000000e+00
1.400000000000000000e+03 0.000000000000000000e+00
1.401000000000000000e+03 0.000000000000000000e+00
1.402000000000000000e+03 0.000000000000000000e+00
1.403000000000000000e+03 0.000000000000000000e+00
1.404000000000000000e+03 0.000000000000000000e+00
1.405000000000000000e+03 0.000000000000000000e+00
1.406000000000000000e+03 0.000000000000000000e+00
1.407000000000000000e+03 0.000000000000000000e+00
1.408000000000000000e+03 0.000000000000000000e+00
1.409000000000000000e+03 0.000000000000000000e+00
1.410000000000000000e+03 0.000000000000000000e+00
1.411000000000000000e+03 0.000000000000000000e+00
1.412000000000000000e+03 0.000000000000000000e+00
1.413000000000000000e+03 0.000000000000000000e+00
1.414000000000000000e+03 0.000000000000000000e+00
1.415000000000000000e+03 0.000000000000000000e+00
1.416000000000000000e+03 0.000000000000000000e+00
1.417000000000000000e+03 0.000000000000000000e+00
1.418000000000000000e+03 0.000000000000000000e+00
1.419000000000000000e+03 0.000000000000000000e+00
1.420000000000000000e+03 0.000000000000000000e+00
1.421000000000000000e+03 0.000000000000000000e+00
1.422000000000000000e+03 0.000000000000000000e+00
1.423000000000000000e+03 0.000000000000000000e+00
1.424000000000000000e+03 0.000000000000000000e+00
1.425000000000000000e+03 0.000000000000000000e+00
1.426000000000000000e+03 0.000000000000000000e+00
1.427000000000000000e+03 0.000000000000000000e+00
1.428000000000000000e+03 0.000000000000000000e+00
1.429000000000000000e+03 0.000000000000000000e+00
1.430000000000000000e+03 0.000000000000000000e+00
1.431000000000000000e+03 0.000000000000000000e+00
1.432000000000000000e+03 0.000000000000000000e+00
1.433000000000000000e+03 0.000000000000000000e+00
1.434000000000000000e+03 0.000000000000000000e+00
1.435000000000000000e+03 0.000000000000000000e+00
1.436000000000000000e+03 0.000000000000000000e+00
1.437000000000000000e+03 0.000000000000000000e+00
1.438000000000000000e+03 0.000000000000000000e+00
1.439000000000000000e+03 0.000000000000000000e+00
1.440000000000000000e+03 0.000000000000000000e+00
1.441000000000000000e+03 0.000000000000000000e+00
1.442000000000000000e+03 0.000000000000000000e+00
1.443000000000000000e+03 0.000000000000000000e+00
1.444000000000000000e+03 0.000000000000000000e+00
1.445000000000000000e+03 0.000000000000000000e+00
1.446000000000000000e+03 0.000000000000000000e+00
1.447000000000000000e+03 0.000000000000000000e+00
1.448000000000000000e+03 0.000000000000000000e+00
1.449000000000000000e+03 0.000000000000000000e+00
1.450000000000000000e+03 0.000000000000000000e+00
1.451000000000000000e+03 0.000000000000000000e+00
1.452000000000000000e+03 0.000000000000000000e+00
1.453000000000000000e+03 0.000000000000000000e+00
1.454000000000000000e+03 0.000000000000000000e+00
1.455000000000000000e+03 0.000000000000000000e+00
1.456000000000000000e+03 0.000000000000000000e+00
1.457000000000000000e+03 0.000000000000000000e+00
1.458000000000000000e+03 0.000000000000000000e+00
1.459000000000000000e+03 0.000000000000000000e+00
1.460000000000000000e+03 0.000000000000000000e+00
1.461000000000000000e+03 0.000000000000000000e+00
1.462000000000000000e+03 0.000000000000000000e+00
1.463000000000000000e+03 0.000000000000000000e+00
1.464000000000000000e+03 0.000000000000000000e+00
1.465000000000000000e+03 0.000000000000000000e+00
1.466000000000000000e+03 0.000000000000000000e+00
1.467000000000000000e+03 0.000000000000000000e+00
1.468000000000000000e+03 0.000000000000000000e+00
1.469000000000000000e+03 0.000000000000000000e+00
1.470000000000000000e+03 0.000000000000000000e+00
1.471000000000000000e+03 0.000000000000000000e+00
1.472000000000000000e+03 0.000000000000000000e+00
1.473000000000000000e+03 0.000000000000000000e+00
1.474000000000000000e+03 0.000000000000000000e+00
1.475000000000000000e+03 0.000000000000000000e+00
1.476000000000000000e+03 0.000000000000000000e+00
1.477000000000000000e+03 0.000000000000000000e+00
1.478000000000000000e+03 0.000000000000000000e+00
1.479000000000000000e+03 0.000000000000000000e+00
1.480000000000000000e+03 0.000000000000000000e+00
1.481000000000000000e+03 0.000000000000000000e+00
1.482000000000000000e+03 0.000000000000000000e+00
1.483000000000000000e+03 0.000000000000000000e+00
1.484000000000000000e+03 0.000000000000000000e+00
1.485000000000000000e+03 0.000000000000000000e+00
1.486000000000000000e+03 0.000000000000000000e+00
1.487000000000000000e+03 0.000000000000000000e+00
1.488000000000000000e+03 0.000000000000000000e+00
1.489000000000000000e+03 0.000000000000000000e+00
1.490000000000000000e+03 0.000000000000000000e+00
1.491000000000000000e+03 0.000000000000000000e+00
1.492000000000000000e+03 0.000000000000000000e+00
1.493000000000000000e+03 0.000000000000000000e+00
1.494000000000000000e+03 0.000000000000000000e+00
1.495000000000000000e+03 0.000000000000000000e+00
1.496000000000000000e+03 0.000000000000000000e+00
1.497000000000000000e+03 0.000000000000000000e+00
1.498000000000000000e+03 0.000000000000000000e+00
1.499000000000000000e+03 0.000000000000000000e+00
1.500000000000000000e+03 0.000000000000000000e+00
