1.010000000000000000e+02 0.000000000000000000e+00
1.020000000000000000e+02 0.000000000000000000e+00
1.030000000000000000e+02 0.000000000000000000e+00
1.040000000000000000e+02 0.000000000000000000e+00
1.050000000000000000e+02 0.000000000000000000e+00
1.060000000000000000e+02 0.000000000000000000e+00
1.070000000000000000e+02 0.000000000000000000e+00
1.080000000000000000e+02 0.000000000000000000e+00
1.090000000000000000e+02 0.000000000000000000e+00
1.100000000000000000e+02 0.000000000000000000e+00
1.110000000000000000e+02 0.000000000000000000e+00
1.120000000000000000e+02 0.000000000000000000e+00
1.130000000000000000e+02 0.000000000000000000e+00
1.140000000000000000e+02 0.000000000000000000e+00
1.150000000000000000e+02 0.000000000000000000e+00
1.160000000000000000e+02 0.000000000000000000e+00
1.170000000000000000e+02 0.000000000000000000e+00
1.180000000000000000e+02 0.000000000000000000e+00
1.190000000000000000e+02 0.000000000000000000e+00
1.200000000000000000e+02 0.000000000000000000e+00
1.210000000000000000e+02 0.000000000000000000e+00
1.220000000000000000e+02 0.000000000000000000e+00
1.230000000000000000e+02 0.000000000000000000e+00
1.240000000000000000e+02 0.000000000000000000e+00
1.250000000000000000e+02 0.000000000000000000e+00
1.260000000000000000e+02 0.000000000000000000e+00
1.270000000000000000e+02 0.000000000000000000e+00
1.280000000000000000e+02 0.000000000000000000e+00
1.290000000000000000e+02 0.000000000000000000e+00
1.300000000000000000e+02 0.000000000000000000e+00
1.310000000000000000e+02 0.000000000000000000e+00
1.320000000000000000e+02 0.000000000000000000e+00
1.330000000000000000e+02 0.000000000000000000e+00
1.340000000000000000e+02 2.430328612943238209e+00
1.350000000000000000e+02 3.640775787180960510e+00
1.360000000000000000e+02 1.154507058494089744e+00
1.370000000000000000e+02 2.106512526861637014e+01
1.380000000000000000e+02 4.897475737398859508e+01
1.390000000000000000e+02 5.982909602364653523e+01
1.400000000000000000e+02 3.558551333955595908e+01
1.410000000000000000e+02 3.213704023853972558e+01
1.420000000000000000e+02 2.458561038581230918e+01
1.430000000000000000e+02 5.060500768512698144e+00
1.440000000000000000e+02 1.409695097677320419e+01
1.450000000000000000e+02 2.071137078199543780e+01
1.460000000000000000e+02 3.339549282721414869e+01
1.470000000000000000e+02 4.313138417254252488e+01
1.480000000000000000e+02 2.952333135656501639e+01
1.490000000000000000e+02 5.534970528106213550e+01
1.500000000000000000e+02 7.403161019908750973e+01
1.510000000000000000e+02 8.526597931134598696e+01
1.520000000000000000e+02 1.067603188923462199e+02
1.530000000000000000e+02 1.108539489423475857e+02
1.540000000000000000e+02 1.426429555071560742e+02
1.550000000000000000e+02 1.686465618336443697e+02
1.560000000000000000e+02 1.608595843600910484e+02
1.570000000000000000e+02 1.461341644057249312e+02
1.580000000000000000e+02 1.543922253214433908e+02
1.590000000000000000e+02 1.739566804812278065e+02
1.600000000000000000e+02 1.981157665007258970e+02
1.610000000000000000e+02 2.316375321443387065e+02
1.620000000000000000e+02 2.481742962663348067e+02
1.630000000000000000e+02 2.773688941505909611e+02
1.640000000000000000e+02 3.233051975736211716e+02
1.650000000000000000e+02 3.739106357809588417e+02
1.660000000000000000e+02 4.460136454262604389e+02
1.670000000000000000e+02 5.313007226876810591e+02
1.680000000000000000e+02 6.176450083592607143e+02
1.690000000000000000e+02 7.071865154324847254e+02
1.700000000000000000e+02 8.478521343289778542e+02
1.710000000000000000e+02 9.381606807716240155e+02
1.720000000000000000e+02 9.121329633478538881e+02
1.730000000000000000e+02 7.745079101016366394e+02
1.740000000000000000e+02 6.085851780336017782e+02
1.750000000000000000e+02 4.312609186683257576e+02
1.760000000000000000e+02 2.756528089607974721e+02
1.770000000000000000e+02 1.725857514623530733e+02
1.780000000000000000e+02 1.302917551130467473e+02
1.790000000000000000e+02 9.521877915785100299e+01
1.800000000000000000e+02 6.102626558182961958e+01
1.810000000000000000e+02 3.799004793818724579e+01
1.820000000000000000e+02 3.265766982161373733e+01
1.830000000000000000e+02 3.338525105994600040e+01
1.840000000000000000e+02 1.087838604479471449e+01
1.850000000000000000e+02 3.461306056627122096e+00
1.860000000000000000e+02 1.766931062435179456e+01
1.870000000000000000e+02 8.913229018042226670e+00
1.880000000000000000e+02 1.488115265712507851e+00
1.890000000000000000e+02 5.387604574362135246e+00
1.900000000000000000e+02 9.194432363334724911e+00
1.910000000000000000e+02 1.042958850031114082e+01
1.920000000000000000e+02 1.025174021572287764e+01
1.930000000000000000e+02 9.311946469612120580e+00
1.940000000000000000e+02 8.289438179838219511e+00
1.950000000000000000e+02 7.615806691765188319e+00
1.960000000000000000e+02 7.586761874092513125e+00
1.970000000000000000e+02 8.593146400746725533e+00
1.980000000000000000e+02 1.362733128992108966e+01
1.990000000000000000e+02 1.583897635345343602e+01
2.000000000000000000e+02 8.422667141671960067e+00
2.010000000000000000e+02 1.734370030070510182e+01
2.020000000000000000e+02 2.020169581622065635e+01
2.030000000000000000e+02 2.895374780336032217e+01
2.040000000000000000e+02 4.386342422646213635e+01
2.050000000000000000e+02 4.982372548433934867e+01
2.060000000000000000e+02 5.581883505911633137e+01
2.070000000000000000e+02 7.743996245541302414e+01
2.080000000000000000e+02 1.220762902302431030e+02
2.090000000000000000e+02 1.714300520431446557e+02
2.100000000000000000e+02 1.923523953951461749e+02
2.110000000000000000e+02 2.039539184816426314e+02
2.120000000000000000e+02 2.213667888612323509e+02
2.130000000000000000e+02 2.450741934660860011e+02
2.140000000000000000e+02 2.856579676623106252e+02
2.150000000000000000e+02 3.372171022816838786e+02
2.160000000000000000e+02 3.916298059738649613e+02
2.170000000000000000e+02 4.402290917859368164e+02
2.180000000000000000e+02 4.742139221115951386e+02
2.190000000000000000e+02 5.356153169881761187e+02
2.200000000000000000e+02 5.987132431653177491e+02
2.210000000000000000e+02 6.346732329184819719e+02
2.220000000000000000e+02 6.522481852520224948e+02
2.230000000000000000e+02 6.521122595104750417e+02
2.240000000000000000e+02 6.466142062629614884e+02
2.250000000000000000e+02 6.377586018875750824e+02
2.260000000000000000e+02 6.172306645924080613e+02
2.270000000000000000e+02 5.651478963085858140e+02
2.280000000000000000e+02 5.212348084007470561e+02
2.290000000000000000e+02 5.033716572080481342e+02
2.300000000000000000e+02 5.072708243310516423e+02
2.310000000000000000e+02 5.072940463596763720e+02
2.320000000000000000e+02 5.058349199543663417e+02
2.330000000000000000e+02 5.140694725368181253e+02
2.340000000000000000e+02 5.368055930304917638e+02
2.350000000000000000e+02 5.723930647168638188e+02
2.360000000000000000e+02 5.856914596141878064e+02
2.370000000000000000e+02 6.089574787595931866e+02
2.380000000000000000e+02 6.044665595396093067e+02
2.390000000000000000e+02 5.368726682016178984e+02
2.400000000000000000e+02 5.207604110765400947e+02
2.410000000000000000e+02 4.933890345914558111e+02
2.420000000000000000e+02 4.553611643020116730e+02
2.430000000000000000e+02 4.157164697780541474e+02
2.440000000000000000e+02 3.712822962463709473e+02
2.450000000000000000e+02 3.168264292470447003e+02
2.460000000000000000e+02 2.877718012652975972e+02
2.470000000000000000e+02 2.695042439651595600e+02
2.480000000000000000e+02 2.318094305330844520e+02
2.490000000000000000e+02 1.828217423771004917e+02
2.500000000000000000e+02 1.531521864965772863e+02
2.510000000000000000e+02 1.478790761460278986e+02
2.520000000000000000e+02 1.508415664592407666e+02
2.530000000000000000e+02 1.260369354698196389e+02
2.540000000000000000e+02 1.210270625388924088e+02
2.550000000000000000e+02 9.590963148724276266e+01
2.560000000000000000e+02 7.987589522298245015e+01
2.570000000000000000e+02 1.055506359883842151e+02
2.580000000000000000e+02 6.975717824517664667e+01
2.590000000000000000e+02 7.354570328562485315e+01
2.600000000000000000e+02 1.006520007529552458e+02
2.610000000000000000e+02 1.135982214270898965e+02
2.620000000000000000e+02 1.001860324538478437e+02
2.630000000000000000e+02 1.082800335407590211e+02
2.640000000000000000e+02 1.156488861883035497e+02
2.650000000000000000e+02 1.208087992740095444e+02
2.660000000000000000e+02 1.323637101846089195e+02
2.670000000000000000e+02 1.479487962671090315e+02
2.680000000000000000e+02 1.761985715619169071e+02
2.690000000000000000e+02 2.013585078821821526e+02
2.700000000000000000e+02 2.148431507258400188e+02
2.710000000000000000e+02 2.281139794233565681e+02
2.720000000000000000e+02 2.716301674548855090e+02
2.730000000000000000e+02 3.081566060555781519e+02
2.740000000000000000e+02 3.462056954988604502e+02
2.750000000000000000e+02 4.012973486413617934e+02
2.760000000000000000e+02 4.456156533388628418e+02
2.770000000000000000e+02 4.945115422526433235e+02
2.780000000000000000e+02 5.621265334163019816e+02
2.790000000000000000e+02 6.272234933831152830e+02
2.800000000000000000e+02 6.630229551545314735e+02
2.810000000000000000e+02 7.384204923667293770e+02
2.820000000000000000e+02 8.327083986932171911e+02
2.830000000000000000e+02 9.099950384360089402e+02
2.840000000000000000e+02 9.628504278780345658e+02
2.850000000000000000e+02 1.030909620825555521e+03
2.860000000000000000e+02 1.076994723086496833e+03
2.870000000000000000e+02 1.131480110765402969e+03
2.880000000000000000e+02 1.187032189794649184e+03
2.890000000000000000e+02 1.207449271520431694e+03
2.900000000000000000e+02 1.190526535780959193e+03
2.910000000000000000e+02 1.156984660236464379e+03
2.920000000000000000e+02 1.115998522604727441e+03
2.930000000000000000e+02 1.062833934453434040e+03
2.940000000000000000e+02 9.846101084214909633e+02
2.950000000000000000e+02 9.094199422646217954e+02
2.960000000000000000e+02 8.212645282514008613e+02
2.970000000000000000e+02 7.387034049367358648e+02
2.980000000000000000e+02 6.839213545416841953e+02
2.990000000000000000e+02 6.306681716241442928e+02
3.000000000000000000e+02 5.819883135656505146e+02
3.010000000000000000e+02 5.305305444836161541e+02
3.020000000000000000e+02 4.840889902717274254e+02
3.030000000000000000e+02 4.595226293714995904e+02
3.040000000000000000e+02 4.404022850445960557e+02
3.050000000000000000e+02 4.196096265712503168e+02
3.060000000000000000e+02 3.892584686786968291e+02
3.070000000000000000e+02 3.533893789255347428e+02
3.080000000000000000e+02 3.324896674341424614e+02
3.090000000000000000e+02 3.219149708151833238e+02
3.100000000000000000e+02 3.040000315494714300e+02
3.110000000000000000e+02 2.712959753785530665e+02
3.120000000000000000e+02 2.312665355942759504e+02
3.130000000000000000e+02 2.073228627463183216e+02
3.140000000000000000e+02 1.912298088985689333e+02
3.150000000000000000e+02 1.763642547604234210e+02
3.160000000000000000e+02 1.584801935075710162e+02
3.170000000000000000e+02 1.339324330844224562e+02
3.180000000000000000e+02 8.990618146827063129e+01
3.190000000000000000e+02 7.940289359676425818e+01
3.200000000000000000e+02 8.483133695706284527e+01
3.210000000000000000e+02 8.196971937785149009e+01
3.220000000000000000e+02 7.640706967434122987e+01
3.230000000000000000e+02 5.918940812072155211e+01
3.240000000000000000e+02 3.742194334508521081e+01
3.250000000000000000e+02 2.631510495125494487e+01
3.260000000000000000e+02 3.264023198506545498e+01
3.270000000000000000e+02 3.434832896308587635e+01
3.280000000000000000e+02 1.841208080273847258e+01
3.290000000000000000e+02 9.054370860820766254e-01
3.300000000000000000e+02 1.341833066569879307e+01
3.310000000000000000e+02 3.003546107239168705e+01
3.320000000000000000e+02 1.692325812258896534e+01
3.330000000000000000e+02 2.096821306160586484e+00
3.340000000000000000e+02 7.329376586600217180e+00
3.350000000000000000e+02 2.346089900850462584e+01
3.360000000000000000e+02 7.524521684298067115e+00
3.370000000000000000e+02 5.023234626011236159e+00
3.380000000000000000e+02 6.674573959344526131e+00
3.390000000000000000e+02 6.286586779713941198e+00
3.400000000000000000e+02 1.918462147687220209e+01
3.410000000000000000e+02 2.637135567517112733e+01
3.420000000000000000e+02 8.141814805849849179e+00
3.430000000000000000e+02 2.133856093549065136e+01
3.440000000000000000e+02 1.138199232393168892e+01
3.450000000000000000e+02 2.466909047914968234e+00
3.460000000000000000e+02 3.089816898568719949e+01
3.470000000000000000e+02 3.486946625051828619e+01
3.480000000000000000e+02 3.433571946276694575e+01
3.490000000000000000e+02 4.607343294337255912e+01
3.500000000000000000e+02 5.728621849440056479e+01
3.510000000000000000e+02 6.694085965774733893e+01
3.520000000000000000e+02 8.244822824346759660e+01
3.530000000000000000e+02 9.879810066583712569e+01
3.540000000000000000e+02 1.124560544285419041e+02
3.550000000000000000e+02 1.293559480713400944e+02
3.560000000000000000e+02 1.562761610454268464e+02
3.570000000000000000e+02 1.594539343704624059e+02
3.580000000000000000e+02 1.698930647583479754e+02
3.590000000000000000e+02 2.085258619580996253e+02
3.600000000000000000e+02 2.234533160547607906e+02
3.610000000000000000e+02 2.413630731176101563e+02
3.620000000000000000e+02 2.717730669155770329e+02
3.630000000000000000e+02 3.025151494295785142e+02
3.640000000000000000e+02 3.227873217382284565e+02
3.650000000000000000e+02 3.537735396390787628e+02
3.660000000000000000e+02 3.627512141671852532e+02
3.670000000000000000e+02 3.694016241651110590e+02
3.680000000000000000e+02 3.823210805227130891e+02
3.690000000000000000e+02 3.935353701306781886e+02
3.700000000000000000e+02 4.014995192283759593e+02
3.710000000000000000e+02 4.069805203899605885e+02
3.720000000000000000e+02 4.046650504355038720e+02
3.730000000000000000e+02 4.042015584733463243e+02
3.740000000000000000e+02 4.233390567517112117e+02
3.750000000000000000e+02 4.039943301119866987e+02
3.760000000000000000e+02 3.875474474590336627e+02
3.770000000000000000e+02 3.700991381248696257e+02
3.780000000000000000e+02 3.505521053919535461e+02
3.790000000000000000e+02 3.512559079029247187e+02
3.800000000000000000e+02 3.381899337689280287e+02
3.810000000000000000e+02 3.236206314392369450e+02
3.820000000000000000e+02 3.160803314665007520e+02
3.830000000000000000e+02 3.124151283758557156e+02
3.840000000000000000e+02 3.030173894234756631e+02
3.850000000000000000e+02 3.134627854179630617e+02
3.860000000000000000e+02 2.964512861439537232e+02
3.870000000000000000e+02 2.847479575399298142e+02
3.880000000000000000e+02 3.031387257622898801e+02
3.890000000000000000e+02 2.904221014727235115e+02
3.900000000000000000e+02 2.987242028209918772e+02
3.910000000000000000e+02 3.110132909977184568e+02
3.920000000000000000e+02 3.094107578718106311e+02
3.930000000000000000e+02 2.978798796515246750e+02
3.940000000000000000e+02 3.067125041485172687e+02
3.950000000000000000e+02 3.275671322962045906e+02
3.960000000000000000e+02 3.429328081310929406e+02
3.970000000000000000e+02 3.487518905413813854e+02
3.980000000000000000e+02 3.488964502695970396e+02
3.990000000000000000e+02 3.739895428956646128e+02
4.000000000000000000e+02 3.882125424808129992e+02
4.010000000000000000e+02 3.966573787639982243e+02
4.020000000000000000e+02 3.988753463596764277e+02
4.030000000000000000e+02 3.954657814353868162e+02
4.040000000000000000e+02 4.036731815429282619e+02
4.050000000000000000e+02 4.063375299937771956e+02
4.060000000000000000e+02 4.033116779713752180e+02
4.070000000000000000e+02 3.916683850684360095e+02
4.080000000000000000e+02 3.656030554241853565e+02
4.090000000000000000e+02 3.342493067828247604e+02
4.100000000000000000e+02 3.126131977602658480e+02
4.110000000000000000e+02 2.996873895457371191e+02
4.120000000000000000e+02 2.845094973449485565e+02
4.130000000000000000e+02 2.574007022609419550e+02
4.140000000000000000e+02 2.461613870151424521e+02
4.150000000000000000e+02 2.206713400746736227e+02
4.160000000000000000e+02 2.020065629122589144e+02
4.170000000000000000e+02 1.867852323584322960e+02
4.180000000000000000e+02 1.535051531217594345e+02
4.190000000000000000e+02 1.374593056834681306e+02
4.200000000000000000e+02 1.159299321095209336e+02
4.210000000000000000e+02 1.181289361543245491e+02
4.220000000000000000e+02 1.255217483509643870e+02
4.230000000000000000e+02 9.260959973034626103e+01
4.240000000000000000e+02 9.213105412777434822e+01
4.250000000000000000e+02 6.107821525202190571e+01
4.260000000000000000e+02 5.516365149730430772e+01
4.270000000000000000e+02 6.924995049989685469e+01
4.280000000000000000e+02 4.917416193113447775e+01
4.290000000000000000e+02 5.242112081708830829e+01
4.300000000000000000e+02 3.538018415059157462e+01
4.310000000000000000e+02 1.732592063887176081e+01
4.320000000000000000e+02 1.552180394027369381e+01
4.330000000000000000e+02 2.258959775772656542e+01
4.340000000000000000e+02 2.813179134411943849e+01
4.350000000000000000e+02 2.469918352136041761e+01
4.360000000000000000e+02 1.695835049782201054e+01
4.370000000000000000e+02 1.023025329744868195e+01
4.380000000000000000e+02 8.535965022604742103e+00
4.390000000000000000e+02 2.218728400124464173e+01
4.400000000000000000e+02 2.579157146027791825e+01
4.410000000000000000e+02 1.065980187844783877e+01
4.420000000000000000e+02 8.073877954781290001e+00
4.430000000000000000e+02 9.773132135656430464e+00
4.440000000000000000e+02 2.349788191039340113e+00
4.450000000000000000e+02 6.438326821613775230e+00
4.460000000000000000e+02 1.026816197884258131e+01
4.470000000000000000e+02 1.104034051234182101e+01
4.480000000000000000e+02 1.050347916614815702e+01
4.490000000000000000e+02 2.609276227961129901e+00
4.500000000000000000e+02 1.310753332462134324e+01
4.510000000000000000e+02 2.872110345778867213e+01
4.520000000000000000e+02 3.060228528411479587e+01
4.530000000000000000e+02 1.191314971250773525e+01
4.540000000000000000e+02 1.484785887160334550e+00
4.550000000000000000e+02 1.009906038614680845e+01
4.560000000000000000e+02 1.416547770379582971e+01
4.570000000000000000e+02 4.586485443683794294e+00
4.580000000000000000e+02 7.055753466196606816e+00
4.590000000000000000e+02 1.721760182327175315e+00
4.600000000000000000e+02 1.641634280439775218e+00
4.610000000000000000e+02 8.800638637494685668e+00
4.620000000000000000e+02 1.445656283136275100e+01
4.630000000000000000e+02 1.219224084422310206e+01
4.640000000000000000e+02 6.781986900456285383e+00
4.650000000000000000e+02 1.598945532254698065e+01
4.660000000000000000e+02 2.678918858742439291e+00
4.670000000000000000e+02 8.502264255133745507e+00
4.680000000000000000e+02 1.956378347023455433e+01
4.690000000000000000e+02 2.836218261564004361e+00
4.700000000000000000e+02 2.972677965982166270e+00
4.710000000000000000e+02 2.737554189794641957e+01
4.720000000000000000e+02 4.709746037958931453e+01
4.730000000000000000e+02 3.745096964322738131e+01
4.740000000000000000e+02 2.479006123625797287e+01
4.750000000000000000e+02 2.212328176726820317e+01
4.760000000000000000e+02 3.507732311761083821e+01
4.770000000000000000e+02 4.296789387264053062e+01
4.780000000000000000e+02 4.889117802530609680e+01
4.790000000000000000e+02 7.128929447002670372e+01
4.800000000000000000e+02 7.685651112632216098e+01
4.810000000000000000e+02 6.301485576939012390e+01
4.820000000000000000e+02 6.135501341008063036e+01
4.830000000000000000e+02 7.945346709188905265e+01
4.840000000000000000e+02 1.036554365159680486e+02
4.850000000000000000e+02 1.227589103920347497e+02
4.860000000000000000e+02 1.196078956855425588e+02
4.870000000000000000e+02 1.149483119037743677e+02
4.880000000000000000e+02 1.208359231072391538e+02
4.890000000000000000e+02 1.269234187927816038e+02
4.900000000000000000e+02 1.067667757776854529e+02
4.910000000000000000e+02 1.199081839244971803e+02
4.920000000000000000e+02 1.402956567399424443e+02
4.930000000000000000e+02 1.493102736776602057e+02
4.940000000000000000e+02 1.525151941505914692e+02
4.950000000000000000e+02 1.646675841319231495e+02
4.960000000000000000e+02 1.403099265712513386e+02
4.970000000000000000e+02 1.465754618751302303e+02
4.980000000000000000e+02 1.421941416718527478e+02
4.990000000000000000e+02 1.214285533291846662e+02
5.000000000000000000e+02 1.393718430201198544e+02
5.010000000000000000e+02 1.562532638456751499e+02
5.020000000000000000e+02 1.495762766023647714e+02
5.030000000000000000e+02 1.443497345986309313e+02
5.040000000000000000e+02 1.426527397013067571e+02
5.050000000000000000e+02 1.320081844638041844e+02
5.060000000000000000e+02 1.321783428452924625e+02
5.070000000000000000e+02 1.151914350134824190e+02
5.080000000000000000e+02 1.018345628500310625e+02
5.090000000000000000e+02 9.575658327250097557e+01
5.100000000000000000e+02 9.062057109313417413e+01
5.110000000000000000e+02 8.837915577680965384e+01
5.120000000000000000e+02 7.532449687888808398e+01
5.130000000000000000e+02 6.952975582451773562e+01
5.140000000000000000e+02 6.962302044596556527e+01
5.150000000000000000e+02 6.170905851099092132e+01
5.160000000000000000e+02 3.999155927193476856e+01
5.170000000000000000e+02 3.432452787803357808e+01
5.180000000000000000e+02 4.362905727499033759e+01
5.190000000000000000e+02 3.440412177763842294e+01
5.200000000000000000e+02 1.082415024808077142e+01
5.210000000000000000e+02 2.336540153080004067e+00
5.220000000000000000e+02 1.048264703173614265e+01
5.230000000000000000e+02 4.045974949387971087e+00
5.240000000000000000e+02 1.764456730968628406e+01
5.250000000000000000e+02 1.247190247459111490e+01
5.260000000000000000e+02 2.435702591163660813e+01
5.270000000000000000e+02 5.225976424393276254e+00
5.280000000000000000e+02 7.923008555071557879e+00
5.290000000000000000e+02 1.506476020742582378e+01
5.300000000000000000e+02 7.175700396182865148e+00
5.310000000000000000e+02 9.187899906036237851e+00
5.320000000000000000e+02 4.099002617506702251e+00
5.330000000000000000e+02 2.773438954988632332e+01
5.340000000000000000e+02 2.398972934660818979e+01
5.350000000000000000e+02 1.128666949834070543e+01
5.360000000000000000e+02 5.015382265712466925e+00
5.370000000000000000e+02 1.193982020120365206e+01
5.380000000000000000e+02 3.731019202820426273e+01
5.390000000000000000e+02 2.420524811449958946e+01
5.400000000000000000e+02 4.213337887990145703e+01
5.410000000000000000e+02 7.321076518979457148e+01
5.420000000000000000e+02 8.100470656917646295e+01
5.430000000000000000e+02 9.001231665007250626e+01
5.440000000000000000e+02 1.027928332586602380e+02
5.450000000000000000e+02 1.133141303049161195e+02
5.460000000000000000e+02 1.221404622978018892e+02
5.470000000000000000e+02 1.367189469404696354e+02
5.480000000000000000e+02 1.618069072599048184e+02
5.490000000000000000e+02 1.708706965989217110e+02
5.500000000000000000e+02 1.780937802115746251e+02
5.510000000000000000e+02 1.943550116158476726e+02
5.520000000000000000e+02 2.027611470344253917e+02
5.530000000000000000e+02 1.956400106824309830e+02
5.540000000000000000e+02 2.010392938394524833e+02
5.550000000000000000e+02 2.134912937785153417e+02
5.560000000000000000e+02 2.069194287907075136e+02
5.570000000000000000e+02 2.099422024061399270e+02
5.580000000000000000e+02 2.170365955205307671e+02
5.590000000000000000e+02 1.980027194150589480e+02
5.600000000000000000e+02 1.903780428541795970e+02
5.610000000000000000e+02 1.734233488902715408e+02
5.620000000000000000e+02 1.809920585563162945e+02
5.630000000000000000e+02 1.859264542003733993e+02
5.640000000000000000e+02 1.648821393279401946e+02
5.650000000000000000e+02 1.635204168222360579e+02
5.660000000000000000e+02 1.597065540759178930e+02
5.670000000000000000e+02 1.439872669155774645e+02
5.680000000000000000e+02 1.287530817672681849e+02
5.690000000000000000e+02 1.314025837378135861e+02
5.700000000000000000e+02 1.432120262808545874e+02
5.710000000000000000e+02 1.118736158680772803e+02
5.720000000000000000e+02 8.934305208462997427e+01
5.730000000000000000e+02 7.472139865588047769e+01
5.740000000000000000e+02 5.711446105579751276e+01
5.750000000000000000e+02 3.687111248029885502e+01
5.760000000000000000e+02 2.785998558805225755e+01
5.770000000000000000e+02 4.920789387056610309e+01
5.780000000000000000e+02 5.074564653255922764e+01
5.790000000000000000e+02 3.820450380004155733e+01
5.800000000000000000e+02 3.103175845052891901e+01
5.810000000000000000e+02 2.949540044379935111e+01
5.820000000000000000e+02 1.284750135034239982e+01
5.830000000000000000e+02 1.333366850445953489e+01
5.840000000000000000e+02 1.846816067843587206e+00
5.850000000000000000e+02 1.252411196224836942e+01
5.860000000000000000e+02 1.224228152458007202e+01
5.870000000000000000e+02 9.960157598008430035e-01
5.880000000000000000e+02 1.075379928438080945e+01
5.890000000000000000e+02 1.373525892553411687e+01
5.900000000000000000e+02 1.578660333748182509e+01
5.910000000000000000e+02 8.550033879900038158e+00
5.920000000000000000e+02 6.034434616262190687e+00
5.930000000000000000e+02 8.100315371499183570e+00
5.940000000000000000e+02 5.123452003318719505e+01
5.950000000000000000e+02 4.022067490354830710e+01
5.960000000000000000e+02 3.169060285003079969e+01
5.970000000000000000e+02 4.670767751503812093e+01
5.980000000000000000e+02 4.535605535366114083e+01
5.990000000000000000e+02 2.735204627670643163e+01
6.000000000000000000e+02 3.184872991495531025e+01
6.010000000000000000e+02 4.689667607342862254e+01
6.020000000000000000e+02 5.980275419415050919e+01
6.030000000000000000e+02 5.927148107446560488e+01
6.040000000000000000e+02 4.263585220908519346e+01
6.050000000000000000e+02 4.644780510267588625e+01
6.060000000000000000e+02 5.321855462974478002e+01
6.070000000000000000e+02 5.722952022401984351e+01
6.080000000000000000e+02 6.196415778884077952e+01
6.090000000000000000e+02 6.262529317983839405e+01
6.100000000000000000e+02 4.523450924704471987e+01
6.110000000000000000e+02 2.957378890064352817e+01
6.120000000000000000e+02 2.570214907280645278e+01
6.130000000000000000e+02 2.602331780750879986e+01
6.140000000000000000e+02 2.157875269597735013e+01
6.150000000000000000e+02 1.363509568139371630e+01
6.160000000000000000e+02 2.963542559634908358e+01
6.170000000000000000e+02 3.953117295313148816e+01
6.180000000000000000e+02 2.899367281476857272e+01
6.190000000000000000e+02 9.930616121344018055e+00
6.200000000000000000e+02 2.170337476358080497e+00
6.210000000000000000e+02 7.351929679526983286e+00
6.220000000000000000e+02 1.998050779091613105e+00
6.230000000000000000e+02 1.833091821406270938e+01
6.240000000000000000e+02 1.654090041070405093e+01
6.250000000000000000e+02 1.286768668532962678e+00
6.260000000000000000e+02 3.290169692180121785e+00
6.270000000000000000e+02 6.432767826384906407e+00
6.280000000000000000e+02 3.397048912277135457e+00
6.290000000000000000e+02 5.334647326695399983e+00
6.300000000000000000e+02 2.009915989421257621e+01
6.310000000000000000e+02 2.414804286188313398e+01
6.320000000000000000e+02 2.354803074673306540e+01
6.330000000000000000e+02 3.928402823895457630e+01
6.340000000000000000e+02 5.000215419120699067e+01
6.350000000000000000e+02 3.035357313212962893e+01
6.360000000000000000e+02 2.370785963907929172e+01
6.370000000000000000e+02 3.440910102032309226e+01
6.380000000000000000e+02 4.248827173615470087e+01
6.390000000000000000e+02 4.972713421489336838e+01
6.400000000000000000e+02 4.185553512028244683e+01
6.410000000000000000e+02 6.221324749222020500e+01
6.420000000000000000e+02 8.349344824517690711e+01
6.430000000000000000e+02 8.633247255133814235e+01
6.440000000000000000e+02 8.474277663347795908e+01
6.450000000000000000e+02 1.070237549471059566e+02
6.460000000000000000e+02 1.147109813109313450e+02
6.470000000000000000e+02 1.118199081518357616e+02
6.480000000000000000e+02 1.036717093756482768e+02
6.490000000000000000e+02 9.989157324206598787e+01
6.500000000000000000e+02 1.080425661273596916e+02
6.510000000000000000e+02 1.244371005600499984e+02
6.520000000000000000e+02 1.229472515245797268e+02
6.530000000000000000e+02 1.223800301389753855e+02
6.540000000000000000e+02 1.268264563666529909e+02
6.550000000000000000e+02 1.274021369425424268e+02
6.560000000000000000e+02 1.212104612321100205e+02
6.570000000000000000e+02 1.336254306097056883e+02
6.580000000000000000e+02 1.300435780750882486e+02
6.590000000000000000e+02 1.347918086704000302e+02
6.600000000000000000e+02 1.226195409373690950e+02
6.610000000000000000e+02 1.090502971997509007e+02
6.620000000000000000e+02 1.264178235428333750e+02
6.630000000000000000e+02 1.195250025093321966e+02
6.640000000000000000e+02 1.148801453640323444e+02
6.650000000000000000e+02 1.281569496577475604e+02
6.660000000000000000e+02 1.266138843633341935e+02
6.670000000000000000e+02 1.089114548433930167e+02
6.680000000000000000e+02 1.016392131093134594e+02
6.690000000000000000e+02 1.010710609002274367e+02
6.700000000000000000e+02 7.605295795270637882e+01
6.710000000000000000e+02 7.202967753370697324e+01
6.720000000000000000e+02 8.768209259697221114e+01
6.730000000000000000e+02 9.976807354283353391e+01
6.740000000000000000e+02 1.011009060983198822e+02
6.750000000000000000e+02 9.927183393901695752e+01
6.760000000000000000e+02 7.079967101016440267e+01
6.770000000000000000e+02 5.896530975108898787e+01
6.780000000000000000e+02 7.200214117817890269e+01
6.790000000000000000e+02 8.203001095208463767e+01
6.800000000000000000e+02 6.621296353246211197e+01
6.810000000000000000e+02 5.289361964322696252e+01
6.820000000000000000e+02 2.992725720389957544e+01
6.830000000000000000e+02 4.452419637494841709e+01
6.840000000000000000e+02 7.050244792781612091e+01
6.850000000000000000e+02 7.440899390790269763e+01
6.860000000000000000e+02 5.047665395064258576e+01
6.870000000000000000e+02 2.622694088570818849e+01
6.880000000000000000e+02 3.176292413814567084e+01
6.890000000000000000e+02 2.930871667772695943e+01
6.900000000000000000e+02 1.785552220286233194e+01
6.910000000000000000e+02 1.506745485583905264e+01
6.920000000000000000e+02 2.268301396930740310e+01
6.930000000000000000e+02 2.162907204729309640e+01
6.940000000000000000e+02 1.791098708359262304e+01
6.950000000000000000e+02 6.357617851068160242e+00
6.960000000000000000e+02 7.083296565028060598e+00
6.970000000000000000e+02 2.978524396390766071e+01
6.980000000000000000e+02 5.051366677660210769e+01
6.990000000000000000e+02 2.275849471893797826e+01
7.000000000000000000e+02 3.057599767475613461e+01
7.010000000000000000e+02 4.059492489939849946e+01
7.020000000000000000e+02 4.409320846297448782e+01
7.030000000000000000e+02 3.044468028624810785e+01
7.040000000000000000e+02 1.353702278572910700e+01
7.050000000000000000e+02 2.814823524579955460e+01
7.060000000000000000e+02 1.876038168637225567e+01
7.070000000000000000e+02 3.595880158058488973e+01
7.080000000000000000e+02 4.121511947106412777e+01
7.090000000000000000e+02 4.580971584404779406e+01
7.100000000000000000e+02 5.275103035262402784e+01
7.110000000000000000e+02 3.967430672059735741e+01
7.120000000000000000e+02 3.974754579842388580e+01
7.130000000000000000e+02 3.793091104542629921e+01
7.140000000000000000e+02 2.582984238124894460e+01
7.150000000000000000e+02 3.794835303815776939e+01
7.160000000000000000e+02 6.049865823895454042e+01
7.170000000000000000e+02 4.883384314457627795e+01
7.180000000000000000e+02 2.896714097055181725e+01
7.190000000000000000e+02 3.846041611491361323e+01
7.200000000000000000e+02 5.667745476664544668e+01
7.210000000000000000e+02 5.401731474491930385e+01
7.220000000000000000e+02 4.042245442854188298e+01
7.230000000000000000e+02 3.329999482887393469e+01
7.240000000000000000e+02 2.421767259282313134e+01
7.250000000000000000e+02 3.993762046048544079e+01
7.260000000000000000e+02 4.169473690935487298e+01
7.270000000000000000e+02 3.018103715204345150e+01
7.280000000000000000e+02 1.242635211823217745e+01
7.290000000000000000e+02 6.331619034225613341e+00
7.300000000000000000e+02 2.838094923459801322e+01
7.310000000000000000e+02 5.309968888197419545e+01
7.320000000000000000e+02 2.911697322132472010e+01
7.330000000000000000e+02 4.520916346815887721e+01
7.340000000000000000e+02 6.548281316116958806e+01
7.350000000000000000e+02 6.276575513894659508e+01
7.360000000000000000e+02 5.726969233768966205e+01
7.370000000000000000e+02 4.528177062435129585e+01
7.380000000000000000e+02 7.585169803401035438e+01
7.390000000000000000e+02 8.019517271671547576e+01
7.400000000000000000e+02 5.391834148102125823e+01
7.410000000000000000e+02 4.075112941091103380e+01
7.420000000000000000e+02 5.089328798631285622e+01
7.430000000000000000e+02 4.313222327940255241e+01
7.440000000000000000e+02 5.928781966396950764e+01
7.450000000000000000e+02 6.621376248859394309e+01
7.460000000000000000e+02 5.070915850446031214e+01
7.470000000000000000e+02 3.404099314665051423e+01
7.480000000000000000e+02 3.066873542720862034e+01
7.490000000000000000e+02 3.268358205973909492e+01
7.500000000000000000e+02 1.187048651939499599e+01
7.510000000000000000e+02 1.397448329184812366e+01
7.520000000000000000e+02 1.797594762912260791e+01
7.530000000000000000e+02 1.870194896701925202e+01
7.540000000000000000e+02 2.741737663970150507e+01
7.550000000000000000e+02 3.050835478323984162e+01
7.560000000000000000e+02 1.592959834474147485e+01
7.570000000000000000e+02 4.030670631196464626e+00
7.580000000000000000e+02 8.438838257623743289e+00
7.590000000000000000e+02 1.941569691765209527e+01
7.600000000000000000e+02 1.818396405102690139e+01
7.610000000000000000e+02 3.522925221739315660e+00
7.620000000000000000e+02 1.532393957279258601e+01
7.630000000000000000e+02 1.051366876664513228e+01
7.640000000000000000e+02 3.119034568554218367e+01
7.650000000000000000e+02 2.576330434467068997e+01
7.660000000000000000e+02 9.910724654636123176e+00
7.670000000000000000e+02 3.776317281891599098e+00
7.680000000000000000e+02 1.109166599751140581e+01
7.690000000000000000e+02 1.046282629122586627e+01
7.700000000000000000e+02 9.140328230450110780e+00
7.710000000000000000e+02 1.280165981542938525e+01
7.720000000000000000e+02 7.417055924081795482e+00
7.730000000000000000e+02 4.325013841319316654e+00
7.740000000000000000e+02 9.039967414765426312e+00
7.750000000000000000e+02 1.646597942128246217e+01
7.760000000000000000e+02 3.589274418792930987e+01
7.770000000000000000e+02 6.957161421904112331e+01
7.780000000000000000e+02 7.357484123003547438e+01
7.790000000000000000e+02 7.254901747977568505e+01
7.800000000000000000e+02 9.256857266127299511e+01
7.810000000000000000e+02 1.168646028624767297e+02
7.820000000000000000e+02 1.173245572702756476e+02
7.830000000000000000e+02 1.434185999792575785e+02
7.840000000000000000e+02 1.721236750259283781e+02
7.850000000000000000e+02 1.980575907902925508e+02
7.860000000000000000e+02 2.342346922837597276e+02
7.870000000000000000e+02 2.719725030076755843e+02
7.880000000000000000e+02 3.045789109728280550e+02
7.890000000000000000e+02 3.506643030284215570e+02
7.900000000000000000e+02 4.451609080273827317e+02
7.910000000000000000e+02 4.989457051845721480e+02
7.920000000000000000e+02 5.543104181912494823e+02
7.930000000000000000e+02 6.401748342667528959e+02
7.940000000000000000e+02 7.368918740564107566e+02
7.950000000000000000e+02 8.155825856876151647e+02
7.960000000000000000e+02 9.027177676623078924e+02
7.970000000000000000e+02 1.081137275819168735e+03
7.980000000000000000e+02 1.285757770379589147e+03
7.990000000000000000e+02 1.483679840696950350e+03
8.000000000000000000e+02 1.699111110535051694e+03
8.010000000000000000e+02 1.964471883426680506e+03
8.020000000000000000e+02 2.272295589296832077e+03
8.030000000000000000e+02 2.580527596971593994e+03
8.040000000000000000e+02 2.922949391412579189e+03
8.050000000000000000e+02 3.271982457996272387e+03
8.060000000000000000e+02 3.686869445343304051e+03
8.070000000000000000e+02 4.140512800456346667e+03
8.080000000000000000e+02 4.537115320472934400e+03
8.090000000000000000e+02 4.849956762912249360e+03
8.100000000000000000e+02 5.184027020327737773e+03
8.110000000000000000e+02 5.408857390168016536e+03
8.120000000000000000e+02 5.586933556523541483e+03
8.130000000000000000e+02 5.645992591163659199e+03
8.140000000000000000e+02 5.570970093963907857e+03
8.150000000000000000e+02 5.399589732420657128e+03
8.160000000000000000e+02 5.148522198713956641e+03
8.170000000000000000e+02 4.836576565118207327e+03
8.180000000000000000e+02 4.585693733665210857e+03
8.190000000000000000e+02 4.288709343082346095e+03
8.200000000000000000e+02 4.012403158025714220e+03
8.210000000000000000e+02 3.826700910599459348e+03
8.220000000000000000e+02 3.711999678904791381e+03
8.230000000000000000e+02 3.608061885524678019e+03
8.240000000000000000e+02 3.547679180875336442e+03
8.250000000000000000e+02 3.463469511097282975e+03
8.260000000000000000e+02 3.411656365823309898e+03
8.270000000000000000e+02 3.450641764156814133e+03
8.280000000000000000e+02 3.507388876374195661e+03
8.290000000000000000e+02 3.546859859394442537e+03
8.300000000000000000e+02 3.657358123418378000e+03
8.310000000000000000e+02 3.751124706907281052e+03
8.320000000000000000e+02 3.825959523335407994e+03
8.330000000000000000e+02 3.952748343912051041e+03
8.340000000000000000e+02 4.013215918896494713e+03
8.350000000000000000e+02 4.082040269653599353e+03
8.360000000000000000e+02 4.207120192906035300e+03
8.370000000000000000e+02 4.236209761667702878e+03
8.380000000000000000e+02 4.320117641568139334e+03
8.390000000000000000e+02 4.318051897116781220e+03
8.400000000000000000e+02 4.263428802115745384e+03
8.410000000000000000e+02 4.179747196639701542e+03
8.420000000000000000e+02 4.045710535988386710e+03
8.430000000000000000e+02 3.896980094981337061e+03
8.440000000000000000e+02 3.818409395768512240e+03
8.450000000000000000e+02 3.695088253889234693e+03
8.460000000000000000e+02 3.390284874740779287e+03
8.470000000000000000e+02 3.088156147894631431e+03
8.480000000000000000e+02 2.868866265919929447e+03
8.490000000000000000e+02 2.671189461219415989e+03
8.500000000000000000e+02 2.443703640945866027e+03
8.510000000000000000e+02 2.219519277120934930e+03
8.520000000000000000e+02 2.026882830982998257e+03
8.530000000000000000e+02 1.846739686994403428e+03
8.540000000000000000e+02 1.688936718108281184e+03
8.550000000000000000e+02 1.511111081708838128e+03
8.560000000000000000e+02 1.363061532254722124e+03
8.570000000000000000e+02 1.259639197884259602e+03
8.580000000000000000e+02 1.154057179838208185e+03
8.590000000000000000e+02 1.073096357809583651e+03
8.600000000000000000e+02 9.548127364862068589e+02
8.610000000000000000e+02 8.743578280232304678e+02
8.620000000000000000e+02 7.687411041692574827e+02
8.630000000000000000e+02 6.892416840696946565e+02
8.640000000000000000e+02 6.267520359054167329e+02
8.650000000000000000e+02 5.393533618751276890e+02
8.660000000000000000e+02 5.031460784691955155e+02
8.670000000000000000e+02 4.137661008504488791e+02
8.680000000000000000e+02 3.822265980709402697e+02
8.690000000000000000e+02 3.537637021987156913e+02
8.700000000000000000e+02 2.828407017838649722e+02
8.710000000000000000e+02 2.341701983405925489e+02
8.720000000000000000e+02 2.316588591455844437e+02
8.730000000000000000e+02 1.796999935905415668e+02
8.740000000000000000e+02 1.656963386226927355e+02
8.750000000000000000e+02 1.132056118415596586e+02
8.760000000000000000e+02 1.032556651939432584e+02
8.770000000000000000e+02 9.663792332296185350e+01
8.780000000000000000e+02 6.466498089589285314e+01
8.790000000000000000e+02 3.871592628085437582e+01
8.800000000000000000e+02 3.766477867482392128e+01
8.810000000000000000e+02 2.390329870566331039e+01
8.820000000000000000e+02 1.608312756947335487e+01
8.830000000000000000e+02 3.123601519601750454e+01
8.840000000000000000e+02 1.475829194109214626e+01
8.850000000000000000e+02 2.450600594897373252e+00
8.860000000000000000e+02 8.321730453847413500e+00
8.870000000000000000e+02 1.666987352395812394e+01
8.880000000000000000e+02 1.180219067579359304e+01
8.890000000000000000e+02 3.021739585563162223e+01
8.900000000000000000e+02 1.405939134411938340e+01
8.910000000000000000e+02 6.324351916200011914e+00
8.920000000000000000e+02 1.107073851773508366e+01
8.930000000000000000e+02 1.336740953744034499e+01
8.940000000000000000e+02 2.844632306576219349e+00
8.950000000000000000e+02 1.588521241236314196e+01
8.960000000000000000e+02 7.343083276290975014e+00
8.970000000000000000e+02 2.348040093963911801e+01
8.980000000000000000e+02 1.406726616884510506e+01
8.990000000000000000e+02 1.197255528411394465e+01
9.000000000000000000e+02 3.758620805641904639e+01
9.010000000000000000e+02 5.770940928438118789e+01
9.020000000000000000e+02 4.192886351306536596e+01
9.030000000000000000e+02 3.612295060568347083e+01
9.040000000000000000e+02 6.819374890064298711e+01
9.050000000000000000e+02 6.568906838656144487e+01
9.060000000000000000e+02 7.733767833229666167e+01
9.070000000000000000e+02 8.708511728064719648e+01
9.080000000000000000e+02 9.554011668187530404e+01
9.090000000000000000e+02 1.056981226716451374e+02
9.100000000000000000e+02 1.062807720597389647e+02
9.110000000000000000e+02 1.130898670815185909e+02
9.120000000000000000e+02 1.119722935905424208e+02
9.130000000000000000e+02 1.460892952499495721e+02
9.140000000000000000e+02 1.783135552789871667e+02
9.150000000000000000e+02 1.901594756689483745e+02
9.160000000000000000e+02 1.942749611283962849e+02
9.170000000000000000e+02 2.054614349927400383e+02
9.180000000000000000e+02 2.198421275876372647e+02
9.190000000000000000e+02 2.401535396390788719e+02
9.200000000000000000e+02 2.506152092719353845e+02
9.210000000000000000e+02 2.553510567724538873e+02
9.220000000000000000e+02 2.605683249118440585e+02
9.230000000000000000e+02 2.517048512341831668e+02
9.240000000000000000e+02 2.330869808960792966e+02
9.250000000000000000e+02 2.258691426171714625e+02
9.260000000000000000e+02 2.311527519601742142e+02
9.270000000000000000e+02 2.276115210122379153e+02
9.280000000000000000e+02 2.182202233927829127e+02
9.290000000000000000e+02 2.157099931549471137e+02
9.300000000000000000e+02 2.150507530595311039e+02
9.310000000000000000e+02 1.824730670261286036e+02
9.320000000000000000e+02 1.487024238124870124e+02
9.330000000000000000e+02 1.465552624144370384e+02
9.340000000000000000e+02 1.214984247200326024e+02
9.350000000000000000e+02 1.158957482679941791e+02
9.360000000000000000e+02 1.201373783654843805e+02
9.370000000000000000e+02 1.185998764986511986e+02
9.380000000000000000e+02 8.341313921592941938e+01
9.390000000000000000e+02 5.495967042107444200e+01
9.400000000000000000e+02 5.810442290811072041e+01
9.410000000000000000e+02 6.813716536403239843e+01
9.420000000000000000e+02 6.138520513378949772e+01
9.430000000000000000e+02 3.325448461729875760e+01
9.440000000000000000e+02 1.930938160132749104e+01
9.450000000000000000e+02 3.557476939846512209e+01
9.460000000000000000e+02 4.007416204107052238e+01
9.470000000000000000e+02 3.466588649035468706e+01
9.480000000000000000e+02 3.471985684505289527e+01
9.490000000000000000e+02 2.827833360298689769e+01
9.500000000000000000e+02 1.073929145612940594e+01
9.510000000000000000e+02 4.975432883450880972e+00
9.520000000000000000e+02 9.545273334163049128e+00
9.530000000000000000e+02 2.761940659821613853e+00
9.540000000000000000e+02 3.550699367897113046e+00
9.550000000000000000e+02 4.818584743829140926e+00
9.560000000000000000e+02 8.587961113876849240e+00
9.570000000000000000e+02 1.036328233430111467e+01
9.580000000000000000e+02 1.962012372329392562e+01
9.590000000000000000e+02 1.421719436838835193e+01
9.600000000000000000e+02 8.302891133347152675e+00
9.610000000000000000e+02 7.147426543248289299e+00
9.620000000000000000e+02 8.040389023853840911e+00
9.630000000000000000e+02 1.997018757776858422e+01
9.640000000000000000e+02 9.393739604853793779e+00
9.650000000000000000e+02 1.467255627255753581e+01
9.660000000000000000e+02 1.238043057560670590e+01
9.670000000000000000e+02 1.124633348475403594e+01
9.680000000000000000e+02 2.050301858535554445e+01
9.690000000000000000e+02 1.377433748973232142e+01
9.700000000000000000e+02 1.016896692594921348e+01
9.710000000000000000e+02 4.326680672889813728e+00
9.720000000000000000e+02 6.886898955196031125e+00
9.730000000000000000e+02 7.943461884670903750e+00
9.740000000000000000e+02 2.382072441194768686e+01
9.750000000000000000e+02 3.401313364032461983e+00
9.760000000000000000e+02 8.900382966190631961e-01
9.770000000000000000e+02 7.372774252229609360e+00
9.780000000000000000e+02 1.739753981124237114e+01
9.790000000000000000e+02 3.099934735532034580e+01
9.800000000000000000e+02 3.473671282040654518e+01
9.810000000000000000e+02 3.227405291018473577e+01
9.820000000000000000e+02 4.343378162414446564e+01
9.830000000000000000e+02 4.730096958316072175e+01
9.840000000000000000e+02 3.258184128189218143e+01
9.850000000000000000e+02 7.297039178593083264e+00
9.860000000000000000e+02 1.320933932393151977e+01
9.870000000000000000e+02 4.954730318399372280e+00
9.880000000000000000e+02 9.780942976974825953e+00
9.890000000000000000e+02 2.701552629199498057e+01
9.900000000000000000e+02 2.923163700891897676e+01
9.910000000000000000e+02 5.490682770587063999e+01
9.920000000000000000e+02 4.235631815598422634e+01
9.930000000000000000e+02 4.743529700684509720e+01
9.940000000000000000e+02 3.984338576436430657e+01
9.950000000000000000e+02 5.957038196224865345e+01
9.960000000000000000e+02 4.827580644886930372e+01
9.970000000000000000e+02 3.356447791537037517e+01
9.980000000000000000e+02 4.903515177971348749e+01
9.990000000000000000e+02 3.902399277743212735e+01
1.000000000000000000e+03 5.164259035655055641e+01
1.001000000000000000e+03 6.318910572614080223e+01
1.002000000000000000e+03 6.748585294605810248e+01
1.003000000000000000e+03 5.406458373444065302e+01
1.004000000000000000e+03 4.701561041493770432e+01
1.005000000000000000e+03 4.073354871369316044e+01
1.006000000000000000e+03 3.971671508298797448e+01
1.007000000000000000e+03 6.011478639004095470e+01
1.008000000000000000e+03 7.775891099585179234e+01
1.009000000000000000e+03 4.678285535269691309e+01
1.010000000000000000e+03 5.213028331950162197e+01
1.011000000000000000e+03 6.017615825726146284e+01
1.012000000000000000e+03 5.111016659751047087e+01
1.013000000000000000e+03 3.923537950207485636e+01
1.014000000000000000e+03 4.143785960580913752e+01
1.015000000000000000e+03 4.116354786307090308e+01
1.016000000000000000e+03 3.048846097308490144e+01
1.017000000000000000e+03 4.004321178423225547e+01
1.018000000000000000e+03 1.262867107883920248e+01
1.019000000000000000e+03 4.610156522821584701e+01
1.020000000000000000e+03 1.604613731950297861e+01
1.021000000000000000e+03 2.710920798755249450e+01
1.022000000000000000e+03 4.210172475103773593e+01
1.023000000000000000e+03 3.878001029045665149e+01
1.024000000000000000e+03 5.050125775933597794e+01
1.025000000000000000e+03 5.141971103734301352e+01
1.026000000000000000e+03 1.869562917012495618e+01
1.027000000000000000e+03 1.789183356846429618e+01
1.028000000000000000e+03 3.920079260869622573e+01
1.029000000000000000e+03 4.982203954356865694e+01
1.030000000000000000e+03 1.675709979253511861e+01
1.031000000000000000e+03 2.188332899792481712e+01
1.032000000000000000e+03 3.992089618257114125e+01
1.033000000000000000e+03 2.759220373443858776e+01
1.034000000000000000e+03 4.145209593360932843e+01
1.035000000000000000e+03 5.248602215767631662e+01
1.036000000000000000e+03 4.639679186335397532e+01
1.037000000000000000e+03 4.212765410788414044e+01
1.038000000000000000e+03 3.123474000000000217e+01
1.039000000000000000e+03 2.826878508298782933e+01
1.040000000000000000e+03 4.426617313277932197e+01
1.041000000000000000e+03 4.926116481327831309e+01
1.042000000000000000e+03 4.411659705394227160e+01
1.043000000000000000e+03 5.281412506224046410e+01
1.044000000000000000e+03 3.622777589211720795e+01
1.045000000000000000e+03 3.788926734439817778e+01
1.046000000000000000e+03 2.614836448132824742e+01
1.047000000000000000e+03 4.046161597510245400e+01
1.048000000000000000e+03 4.436639834024918372e+01
1.049000000000000000e+03 3.680027244813236820e+01
1.050000000000000000e+03 2.920941236514503103e+01
1.051000000000000000e+03 2.802852327800790988e+01
1.052000000000000000e+03 3.676627933609964316e+01
1.053000000000000000e+03 4.246380795031058142e+01
1.054000000000000000e+03 3.738632788381799088e+01
1.055000000000000000e+03 2.775411049792538876e+01
1.056000000000000000e+03 3.964386844398415377e+01
1.057000000000000000e+03 3.968603407867555433e+01
1.058000000000000000e+03 1.946175087137029180e+01
1.059000000000000000e+03 8.181485269709684260e+00
1.060000000000000000e+03 1.839407203319654016e+01
1.061000000000000000e+03 3.251981195020711368e+01
1.062000000000000000e+03 3.246513419087138175e+01
1.063000000000000000e+03 2.164196668049802597e+01
1.064000000000000000e+03 3.038569668049817096e+01
1.065000000000000000e+03 3.780106602484456602e+01
1.066000000000000000e+03 4.034483261410790078e+01
1.067000000000000000e+03 3.555725485477098147e+01
1.068000000000000000e+03 4.049543576763387875e+01
1.069000000000000000e+03 3.874769879668067318e+01
1.070000000000000000e+03 2.321390130705326982e+01
1.071000000000000000e+03 2.801784392116099198e+01
1.072000000000000000e+03 3.928060429460714431e+01
1.073000000000000000e+03 1.274725623189052026e+00
1.074000000000000000e+03 3.481023929460715038e+01
1.075000000000000000e+03 2.381771966805079188e+01
1.076000000000000000e+03 2.227474390041502872e+01
1.077000000000000000e+03 4.427125132780253125e+01
1.078000000000000000e+03 4.475535647303098585e+01
1.079000000000000000e+03 3.018989155601651575e+01
1.080000000000000000e+03 3.222558715767620185e+01
1.081000000000000000e+03 1.893181842323413377e+01
1.082000000000000000e+03 6.314419409937388927e+00
1.083000000000000000e+03 1.320996644813339138e+01
1.084000000000000000e+03 4.934394099585317406e+01
1.085000000000000000e+03 2.699279373444336727e+01
1.086000000000000000e+03 2.710241101659748608e+01
1.087000000000000000e+03 2.926903149377531577e+01
1.088000000000000000e+03 3.422960311203492267e+01
1.089000000000000000e+03 4.093367865145388862e+01
1.090000000000000000e+03 2.148009290456470310e+01
1.091000000000000000e+03 3.407012601659820916e+01
1.092000000000000000e+03 3.512776319502098232e+01
1.093000000000000000e+03 3.026492526970958963e+01
1.094000000000000000e+03 2.955806434782612158e+01
1.095000000000000000e+03 3.115200520746887847e+01
1.096000000000000000e+03 1.202529356016703233e+01
1.097000000000000000e+03 9.146768257261781443e+00
1.098000000000000000e+03 1.821062291925471399e+01
1.099000000000000000e+03 1.089650145228263689e+01
1.100000000000000000e+03 1.042924009128643803e+01
1.101000000000000000e+03 2.842910547717759329e+01
1.102000000000000000e+03 1.395852422360183631e+01
1.103000000000000000e+03 2.724903630705383506e+01
1.104000000000000000e+03 1.717540033194959648e+01
1.105000000000000000e+03 1.415350392116180878e+01
1.106000000000000000e+03 1.610035296680495875e+01
1.107000000000000000e+03 2.063626821576777814e+01
1.108000000000000000e+03 1.593654510373297661e+01
1.109000000000000000e+03 3.492348236514712934e+00
1.110000000000000000e+03 3.470121477178651936e+00
1.111000000000000000e+03 1.640207062240737201e+01
1.112000000000000000e+03 1.263712595435727337e+01
1.113000000000000000e+03 3.297584632780135649e+01
1.114000000000000000e+03 9.865831204968644741e+00
1.115000000000000000e+03 1.140924327801223104e+00
1.116000000000000000e+03 2.014414402489438771e+01
1.117000000000000000e+03 3.337036941908718291e+01
1.118000000000000000e+03 1.282056904564104194e+01
1.119000000000000000e+03 6.531663203320771771e+00
1.120000000000000000e+03 1.175419084439768369e+01
1.121000000000000000e+03 2.055739116182554227e+01
1.122000000000000000e+03 8.523997591285978004e+00
1.123000000000000000e+03 3.432683821946026370e+01
1.124000000000000000e+03 1.404574767634843901e+01
1.125000000000000000e+03 1.082134378008345976e+01
1.126000000000000000e+03 3.121921721991518339e+01
1.127000000000000000e+03 3.913551678423250735e+01
1.128000000000000000e+03 2.650680755186651893e+01
1.129000000000000000e+03 2.028512917012510997e+01
1.130000000000000000e+03 3.674422296680366884e+01
1.131000000000000000e+03 4.372755987577628645e+01
1.132000000000000000e+03 2.133662663900360812e+01
1.133000000000000000e+03 3.072324510373310957e+01
1.134000000000000000e+03 4.524748269709515114e+01
1.135000000000000000e+03 4.626588053941889456e+01
1.136000000000000000e+03 2.524548500000150852e+01
1.137000000000000000e+03 2.084924228215721698e+01
1.138000000000000000e+03 3.724959728215789312e+01
1.139000000000000000e+03 4.014297493775877257e+01
1.140000000000000000e+03 3.455308286306929944e+01
1.141000000000000000e+03 3.665252448132853402e+01
1.142000000000000000e+03 6.792232435686887726e+00
1.143000000000000000e+03 5.517766072463813742e+01
1.144000000000000000e+03 3.818337811203383581e+01
1.145000000000000000e+03 3.014673331950201174e+01
1.146000000000000000e+03 2.371732655601607220e+01
1.147000000000000000e+03 2.516565234439783083e+01
1.148000000000000000e+03 3.105747016597511845e+01
1.149000000000000000e+03 3.027580506224036583e+01
1.150000000000000000e+03 3.540363838174169331e+01
1.151000000000000000e+03 3.202405116182679023e+01
1.152000000000000000e+03 4.535506608695264674e+00
1.153000000000000000e+03 2.918514970954349508e+01
1.154000000000000000e+03 2.750740072614004106e+01
1.155000000000000000e+03 4.323389141078837383e+01
1.156000000000000000e+03 3.323388460580853376e+01
1.157000000000000000e+03 3.515275107883769579e+01
1.158000000000000000e+03 3.323431269709564617e+01
1.159000000000000000e+03 3.281127983402505066e+01
1.160000000000000000e+03 3.419036521739134571e+01
1.161000000000000000e+03 2.008938952282293400e+01
1.162000000000000000e+03 3.873018099585030072e+00
1.163000000000000000e+03 8.190655786307409869e+00
1.164000000000000000e+03 1.689078203319424532e+01
1.165000000000000000e+03 4.078214589211594898e+01
1.166000000000000000e+03 3.447995900414890968e+01
1.167000000000000000e+03 3.864302087136789510e+01
1.168000000000000000e+03 1.523347797101548906e+01
1.169000000000000000e+03 2.068979018672243697e+01
1.170000000000000000e+03 2.855895734439807754e+01
1.171000000000000000e+03 3.035907593360939316e+01
1.172000000000000000e+03 2.811797627329207927e+01
1.173000000000000000e+03 1.331121775933513440e+01
1.174000000000000000e+03 2.010279107883903738e+00
1.175000000000000000e+03 3.624266759335653454e+00
1.176000000000000000e+03 2.143199883817452189e+01
1.177000000000000000e+03 2.621409960580915310e+01
1.178000000000000000e+03 1.809802373444044932e+01
1.179000000000000000e+03 1.878030815352694205e+01
1.180000000000000000e+03 1.228800008298737190e+01
1.181000000000000000e+03 1.539386132779979732e+01
1.182000000000000000e+03 2.732918580912834017e+01
1.183000000000000000e+03 3.250223331950196837e+01
1.184000000000000000e+03 2.515735597510253285e+01
1.185000000000000000e+03 2.018552520746827739e+01
1.186000000000000000e+03 2.177592304979233973e+01
1.187000000000000000e+03 1.268050823651307280e+00
1.188000000000000000e+03 1.628174008298729447e+01
1.189000000000000000e+03 2.721637105590050254e+01
1.190000000000000000e+03 2.194140161825689006e+01
1.191000000000000000e+03 2.435296261410852026e+01
1.192000000000000000e+03 3.182865979253059052e+01
1.193000000000000000e+03 2.410602000000000089e+01
1.194000000000000000e+03 2.402989917012568100e+01
1.195000000000000000e+03 3.057830377593423421e+01
1.196000000000000000e+03 2.537056060165975069e+01
1.197000000000000000e+03 2.557756144927538244e+01
1.198000000000000000e+03 2.108980821576701103e+01
1.199000000000000000e+03 5.656506452282461517e+00
1.200000000000000000e+03 6.033768995850631534e+00
1.201000000000000000e+03 2.588224399585384639e+00
1.202000000000000000e+03 4.098235493775728600e+00
1.203000000000000000e+03 1.948992079875495165e+01
1.204000000000000000e+03 1.323074981327648558e+01
1.205000000000000000e+03 5.197245319501107019e+00
1.206000000000000000e+03 2.178275829875774061e+00
1.207000000000000000e+03 7.263913738588800406e+00
1.208000000000000000e+03 6.626967510375860293e+00
1.209000000000000000e+03 2.867579112033284261e+01
1.210000000000000000e+03 1.314811413900400083e+01
1.211000000000000000e+03 1.313995215768022362e+00
1.212000000000000000e+03 1.634054116182373662e+01
1.213000000000000000e+03 3.479398999999960296e+01
1.214000000000000000e+03 3.485696539419067363e+01
1.215000000000000000e+03 3.500127684647299731e+01
1.216000000000000000e+03 2.050328294605937174e+01
1.217000000000000000e+03 2.536332381742735720e+01
1.218000000000000000e+03 2.469636846472890923e+01
1.219000000000000000e+03 2.121836842325608430e+00
1.220000000000000000e+03 7.750613879657531902e-01
1.221000000000000000e+03 3.083764999999907630e+01
1.222000000000000000e+03 9.990406730848054195e+00
1.223000000000000000e+03 1.048141946472841823e+01
1.224000000000000000e+03 4.889816070539433923e+01
1.225000000000000000e+03 3.745825593360748229e+01
1.226000000000000000e+03 8.061829285711965554e+00
1.227000000000000000e+03 5.200005356846635785e+00
1.228000000000000000e+03 7.316369410788636785e+00
1.229000000000000000e+03 9.731779809128566328e+00
1.230000000000000000e+03 2.484154600413980063e+01
1.231000000000000000e+03 3.572480232365147401e+01
1.232000000000000000e+03 2.184972132779875409e+01
1.233000000000000000e+03 1.600722352697009043e+01
1.234000000000000000e+03 2.866247536231974635e+01
1.235000000000000000e+03 9.516615197094170142e+00
1.236000000000000000e+03 1.425161417012324350e+01
1.237000000000000000e+03 1.950132238589229772e+01
1.238000000000000000e+03 1.242556534161475490e+01
1.239000000000000000e+03 9.982321643153488466e+00
1.240000000000000000e+03 3.007451809128966147e+00
1.241000000000000000e+03 1.812456323651448287e+01
1.242000000000000000e+03 7.621002819873600842e+00
1.243000000000000000e+03 3.881094309129857756e+00
1.244000000000000000e+03 8.353729429460518219e+00
1.245000000000000000e+03 1.955276508298772242e+01
1.246000000000000000e+03 6.550463489627070146e+00
1.247000000000000000e+03 6.122658921146517663e-01
1.248000000000000000e+03 3.902514829875761038e+00
1.249000000000000000e+03 1.466522398340367594e+01
1.250000000000000000e+03 1.479398095435719540e+01
1.251000000000000000e+03 2.651485190871361297e+01
1.252000000000000000e+03 2.437866865145310413e+01
1.253000000000000000e+03 1.017572462655609833e+01
1.254000000000000000e+03 2.351042456431627059e+01
1.255000000000000000e+03 2.830370095435696953e+01
1.256000000000000000e+03 1.929578251037746028e+01
1.257000000000000000e+03 1.406965228216077257e+01
1.258000000000000000e+03 1.623075917012506864e+01
1.259000000000000000e+03 3.321387385093254352e+01
1.260000000000000000e+03 3.676108547717837638e+01
1.261000000000000000e+03 3.291774304979291799e+01
1.262000000000000000e+03 2.518670443983386775e+01
1.263000000000000000e+03 2.220185590062175507e+01
1.264000000000000000e+03 3.978188215767653446e+01
1.265000000000000000e+03 2.470864203319505137e+01
1.266000000000000000e+03 3.949905626556123650e+01
1.267000000000000000e+03 4.445182778467895446e+01
1.268000000000000000e+03 2.585777910788446832e+01
1.269000000000000000e+03 1.090062559128599773e+01
1.270000000000000000e+03 1.838252840249173303e+01
1.271000000000000000e+03 3.569362877846712934e+01
1.272000000000000000e+03 3.669565506224055440e+01
1.273000000000000000e+03 2.137769502074563377e+01
1.274000000000000000e+03 9.289065979254772287e+00
1.275000000000000000e+03 7.377011855070779944e+00
1.276000000000000000e+03 4.472714597510157120e+01
1.277000000000000000e+03 3.486596574689905026e+00
1.278000000000000000e+03 4.017698269709422476e+01
1.279000000000000000e+03 3.511175450207461779e+01
1.280000000000000000e+03 1.667440315352577329e+01
1.281000000000000000e+03 1.523102597510334277e+01
1.282000000000000000e+03 1.465253987551874459e+01
1.283000000000000000e+03 1.368518834024901132e+01
1.284000000000000000e+03 2.588755968879584657e+01
1.285000000000000000e+03 1.698263226141230575e+01
1.286000000000000000e+03 8.106011280083274428e+00
1.287000000000000000e+03 3.855874593361242120e+01
1.288000000000000000e+03 5.043630883817607469e+01
1.289000000000000000e+03 2.244192746887974366e+01
1.290000000000000000e+03 1.341761394190952217e+01
1.291000000000000000e+03 2.838988377593384627e+01
1.292000000000000000e+03 2.322948962732996847e+01
1.293000000000000000e+03 3.710780219916741896e+00
1.294000000000000000e+03 5.160984049794102191e+00
1.295000000000000000e+03 3.205075209543387160e+01
1.296000000000000000e+03 1.672486124223592441e+01
1.297000000000000000e+03 9.584977365145977757e+00
1.298000000000000000e+03 8.896538340249428245e+00
1.299000000000000000e+03 8.074456639003965819e+00
1.300000000000000000e+03 8.961723743271022613e+00
1.301000000000000000e+03 4.692128091286343228e+00
1.302000000000000000e+03 3.708794514523059860e+00
1.303000000000000000e+03 0.000000000000000000e+00
1.304000000000000000e+03 0.000000000000000000e+00
1.305000000000000000e+03 0.000000000000000000e+00
1.306000000000000000e+03 0.000000000000000000e+00
1.307000000000000000e+03 0.000000000000000000e+00
1.308000000000000000e+03 0.000000000000000000e+00
1.309000000000000000e+03 0.000000000000000000e+00
1.310000000000000000e+03 0.000000000000000000e+00
1.311000000000000000e+03 0.000000000000000000e+00
1.312000000000000000e+03 0.000000000000000000e+00
1.313000000000000000e+03 0.000000000000000000e+00
1.314000000000000000e+03 0.000000000000000000e+00
1.315000000000000000e+03 0.000000000000000000e+00
1.316000000000000000e+03 0.000000000000000000e+00
1.317000000000000000e+03 0.000000000000000000e+00
1.318000000000000000e+03 0.000000000000000000e+00
1.319000000000000000e+03 0.000000000000000000e+00
1.320000000000000000e+03 0.000000000000000000e+00
1.321000000000000000e+03 0.000000000000000000e+00
1.322000000000000000e+03 0.000000000000000000e+00
1.323000000000000000e+03 0.000000000000000000e+00
1.324000000000000000e+03 0.000000000000000000e+00
1.325000000000000000e+03 0.000000000000000000e+00
1.326000000000000000e+03 0.000000000000000000e+00
1.327000000000000000e+03 0.000000000000000000e+00
1.328000000000000000e+03 0.000000000000000000e+00
1.329000000000000000e+03 0.000000000000000000e+00
1.330000000000000000e+03 0.000000000000000000e+00
1.331000000000000000e+03 0.000000000000000000e+00
1.332000000000000000e+03 0.000000000000000000e+00
1.333000000000000000e+03 0.000000000000000000e+00
1.334000000000000000e+03 0.000000000000000000e+00
1.335000000000000000e+03 0.000000000000000000e+00
1.336000000000000000e+03 0.000000000000000000e+00
1.337000000000000000e+03 0.000000000000000000e+00
1.338000000000000000e+03 0.000000000000000000e+00
1.339000000000000000e+03 0.000000000000000000e+00
1.340000000000000000e+03 0.000000000000000000e+00
1.341000000000000000e+03 0.000000000000000000e+00
1.342000000000000000e+03 0.000000000000000000e+00
1.343000000000000000e+03 0.000000000000000000e+00
1.344000000000000000e+03 0.000000000000000000e+00
1.345000000000000000e+03 0.000000000000000000e+00
1.346000000000000000e+03 0.000000000000000000e+00
1.347000000000000000e+03 0.000000000000000000e+00
1.348000000000000000e+03 0.000000000000000000e+00
1.349000000000000000e+03 0.000000000000000000e+00
1.350000000000000000e+03 0.000000000000000000e+00
1.351000000000000000e+03 0.000000000000000000e+00
1.352000000000000000e+03 0.000000000000000000e+00
1.353000000000000000e+03 0.000000000000000000e+00
1.354000000000000000e+03 0.000000000000000000e+00
1.355000000000000000e+03 0.000000000000000000e+00
1.356000000000000000e+03 0.000000000000000000e+00
1.357000000000000000e+03 0.000000000000000000e+00
1.358000000000000000e+03 0.000000000000000000e+00
1.359000000000000000e+03 0.000000000000000000e+00
1.360000000000000000e+03 0.000000000000000000e+00
1.361000000000000000e+03 0.000000000000000000e+00
1.362000000000000000e+03 0.000000000000000000e+00
1.363000000000000000e+03 0.000000000000000000e+00
1.364000000000000000e+03 0.000000000000000000e+00
1.365000000000000000e+03 0.000000000000000000e+00
1.366000000000000000e+03 0.000000000000000000e+00
1.367000000000000000e+03 0.000000000000000000e+00
1.368000000000000000e+03 0.000000000000000000e+00
1.369000000000000000e+03 0.000000000000000000e+00
1.370000000000000000e+03 0.000000000000000000e+00
1.371000000000000000e+03 0.000000000000000000e+00
1.372000000000000000e+03 0.000000000000000000e+00
1.373000000000000000e+03 0.000000000000000000e+00
1.374000000000000000e+03 0.000000000000000000e+00
1.375000000000000000e+03 0.000000000000000000e+00
1.376000000000000000e+03 0.000000000000000000e+00
1.377000000000000000e+03 0.000000000000000000e+00
1.378000000000000000e+03 0.000000000000000000e+00
1.379000000000000000e+03 0.000000000000000000e+00
1.380000000000000000e+03 0.000000000000000000e+00
1.381000000000000000e+03 0.000000000000000000e+00
1.382000000000000000e+03 0.000000000000000000e+00
1.383000000000000000e+03 0.000000000000000000e+00
1.384000000000000000e+03 0.000000000000000000e+00
1.385000000000000000e+03 0.000000000000000000e+00
1.386000000000000000e+03 0.000000000000000000e+00
1.387000000000000000e+03 0.000000000000000000e+00
1.388000000000000000e+03 0.000000000000000000e+00
1.389000000000000000e+03 0.000000000000000000e+00
1.390000000000000000e+03 0.000000000000000000e+00
1.391000000000000000e+03 0.000000000000000000e+00
1.392000000000000000e+03 0.000000000000000000e+00
1.393000000000000000e+03 0.000000000000000000e+00
1.394000000000000000e+03 0.000000000000000000e+00
1.395000000000000000e+03 0.000000000000000000e+00
1.396000000000000000e+03 0.000000000000000000e+00
1.397000000000000000e+03 0.000000000000000000e+00
1.398000000000000000e+03 0.000000000000000000e+00
1.399000000000000000e+03 0.000000000000000000e+00
1.400000000000000000e+03 0.000000000000000000e+00
1.401000000000000000e+03 0.000000000000000000e+00
1.402000000000000000e+03 0.000000000000000000e+00
1.403000000000000000e+03 0.000000000000000000e+00
1.404000000000000000e+03 0.000000000000000000e+00
1.405000000000000000e+03 0.000000000000000000e+00
1.406000000000000000e+03 0.000000000000000000e+00
1.407000000000000000e+03 0.000000000000000000e+00
1.408000000000000000e+03 0.000000000000000000e+00
1.409000000000000000e+03 0.000000000000000000e+00
1.410000000000000000e+03 0.000000000000000000e+00
1.411000000000000000e+03 0.000000000000000000e+00
1.412000000000000000e+03 0.000000000000000000e+00
1.413000000000000000e+03 0.000000000000000000e+00
1.414000000000000000e+03 0.000000000000000000e+00
1.415000000000000000e+03 0.000000000000000000e+00
1.416000000000000000e+03 0.000000000000000000e+00
1.417000000000000000e+03 0.000000000000000000e+00
1.418000000000000000e+03 0.000000000000000000e+00
1.419000000000000000e+03 0.000000000000000000e+00
1.420000000000000000e+03 0.000000000000000000e+00
1.421000000000000000e+03 0.000000000000000000e+00
1.422000000000000000e+03 0.000000000000000000e+00
1.423000000000000000e+03 0.000000000000000000e+00
1.424000000000000000e+03 0.000000000000000000e+00
1.425000000000000000e+03 0.000000000000000000e+00
1.426000000000000000e+03 0.000000000000000000e+00
1.427000000000000000e+03 0.000000000000000000e+00
1.428000000000000000e+03 0.000000000000000000e+00
1.429000000000000000e+03 0.000000000000000000e+00
1.430000000000000000e+03 0.000000000000000000e+00
1.431000000000000000e+03 0.000000000000000000e+00
1.432000000000000000e+03 0.000000000000000000e+00
1.433000000000000000e+03 0.000000000000000000e+00
1.434000000000000000e+03 0.000000000000000000e+00
1.435000000000000000e+03 0.000000000000000000e+00
1.436000000000000000e+03 0.000000000000000000e+00
1.437000000000000000e+03 0.000000000000000000e+00
1.438000000000000000e+03 0.000000000000000000e+00
1.439000000000000000e+03 0.000000000000000000e+00
1.440000000000000000e+03 0.000000000000000000e+00
1.441000000000000000e+03 0.000000000000000000e+00
1.442000000000000000e+03 0.000000000000000000e+00
1.443000000000000000e+03 0.000000000000000000e+00
1.444000000000000000e+03 0.000000000000000000e+00
1.445000000000000000e+03 0.000000000000000000e+00
1.446000000000000000e+03 0.000000000000000000e+00
1.447000000000000000e+03 0.000000000000000000e+00
1.448000000000000000e+03 0.000000000000000000e+00
1.449000000000000000e+03 0.000000000000000000e+00
1.450000000000000000e+03 0.000000000000000000e+00
1.451000000000000000e+03 0.000000000000000000e+00
1.452000000000000000e+03 0.000000000000000000e+00
1.453000000000000000e+03 0.000000000000000000e+00
1.454000000000000000e+03 0.000000000000000000e+00
1.455000000000000000e+03 0.000000000000000000e+00
1.456000000000000000e+03 0.000000000000000000e+00
1.457000000000000000e+03 0.000000000000000000e+00
1.458000000000000000e+03 0.000000000000000000e+00
1.459000000000000000e+03 0.000000000000000000e+00
1.460000000000000000e+03 0.000000000000000000e+00
1.461000000000000000e+03 0.000000000000000000e+00
1.462000000000000000e+03 0.000000000000000000e+00
1.463000000000000000e+03 0.000000000000000000e+00
1.464000000000000000e+03 0.000000000000000000e+00
1.465000000000000000e+03 0.000000000000000000e+00
1.466000000000000000e+03 0.000000000000000000e+00
1.467000000000000000e+03 0.000000000000000000e+00
1.468000000000000000e+03 0.000000000000000000e+00
1.469000000000000000e+03 0.000000000000000000e+00
1.470000000000000000e+03 0.000000000000000000e+00
1.471000000000000000e+03 0.000000000000000000e+00
1.472000000000000000e+03 0.000000000000000000e+00
1.473000000000000000e+03 0.000000000000000000e+00
1.474000000000000000e+03 0.000000000000000000e+00
1.475000000000000000e+03 0.000000000000000000e+00
1.476000000000000000e+03 0.000000000000000000e+00
1.477000000000000000e+03 0.000000000000000000e+00
1.478000000000000000e+03 0.000000000000000000e+00
1.479000000000000000e+03 0.000000000000000000e+00
1.480000000000000000e+03 0.000000000000000000e+00
1.481000000000000000e+03 0.000000000000000000e+00
1.482000000000000000e+03 0.000000000000000000e+00
1.483000000000000000e+03 0.000000000000000000e+00
1.484000000000000000e+03 0.000000000000000000e+00
1.485000000000000000e+03 0.000000000000000000e+00
1.486000000000000000e+03 0.000000000000000000e+00
1.487000000000000000e+03 0.000000000000000000e+00
1.488000000000000000e+03 0.000000000000000000e+00
1.489000000000000000e+03 0.000000000000000000e+00
1.490000000000000000e+03 0.000000000000000000e+00
1.491000000000000000e+03 0.000000000000000000e+00
1.492000000000000000e+03 0.000000000000000000e+00
1.493000000000000000e+03 0.000000000000000000e+00
1.494000000000000000e+03 0.000000000000000000e+00
1.495000000000000000e+03 0.000000000000000000e+00
1.496000000000000000e+03 0.000000000000000000e+00
1.497000000000000000e+03 0.000000000000000000e+00
1.498000000000000000e+03 0.000000000000000000e+00
1.499000000000000000e+03 0.000000000000000000e+00
1.500000000000000000e+03 0.000000000000000000e+00
