1.010000000000000000e+02 0.000000000000000000e+00
1.020000000000000000e+02 0.000000000000000000e+00
1.030000000000000000e+02 0.000000000000000000e+00
1.040000000000000000e+02 0.000000000000000000e+00
1.050000000000000000e+02 0.000000000000000000e+00
1.060000000000000000e+02 0.000000000000000000e+00
1.070000000000000000e+02 0.000000000000000000e+00
1.080000000000000000e+02 0.000000000000000000e+00
1.090000000000000000e+02 0.000000000000000000e+00
1.100000000000000000e+02 0.000000000000000000e+00
1.110000000000000000e+02 0.000000000000000000e+00
1.120000000000000000e+02 0.000000000000000000e+00
1.130000000000000000e+02 0.000000000000000000e+00
1.140000000000000000e+02 0.000000000000000000e+00
1.150000000000000000e+02 0.000000000000000000e+00
1.160000000000000000e+02 0.000000000000000000e+00
1.170000000000000000e+02 0.000000000000000000e+00
1.180000000000000000e+02 0.000000000000000000e+00
1.190000000000000000e+02 0.000000000000000000e+00
1.200000000000000000e+02 0.000000000000000000e+00
1.210000000000000000e+02 0.000000000000000000e+00
1.220000000000000000e+02 0.000000000000000000e+00
1.230000000000000000e+02 0.000000000000000000e+00
1.240000000000000000e+02 0.000000000000000000e+00
1.250000000000000000e+02 0.000000000000000000e+00
1.260000000000000000e+02 0.000000000000000000e+00
1.270000000000000000e+02 0.000000000000000000e+00
1.280000000000000000e+02 0.000000000000000000e+00
1.290000000000000000e+02 0.000000000000000000e+00
1.300000000000000000e+02 0.000000000000000000e+00
1.310000000000000000e+02 0.000000000000000000e+00
1.320000000000000000e+02 0.000000000000000000e+00
1.330000000000000000e+02 0.000000000000000000e+00
1.340000000000000000e+02 0.000000000000000000e+00
1.350000000000000000e+02 0.000000000000000000e+00
1.360000000000000000e+02 0.000000000000000000e+00
1.370000000000000000e+02 0.000000000000000000e+00
1.380000000000000000e+02 0.000000000000000000e+00
1.390000000000000000e+02 0.000000000000000000e+00
1.400000000000000000e+02 0.000000000000000000e+00
1.410000000000000000e+02 0.000000000000000000e+00
1.420000000000000000e+02 0.000000000000000000e+00
1.430000000000000000e+02 0.000000000000000000e+00
1.440000000000000000e+02 0.000000000000000000e+00
1.450000000000000000e+02 0.000000000000000000e+00
1.460000000000000000e+02 0.000000000000000000e+00
1.470000000000000000e+02 0.000000000000000000e+00
1.480000000000000000e+02 0.000000000000000000e+00
1.490000000000000000e+02 0.000000000000000000e+00
1.500000000000000000e+02 0.000000000000000000e+00
1.510000000000000000e+02 0.000000000000000000e+00
1.520000000000000000e+02 0.000000000000000000e+00
1.530000000000000000e+02 0.000000000000000000e+00
1.540000000000000000e+02 0.000000000000000000e+00
1.550000000000000000e+02 0.000000000000000000e+00
1.560000000000000000e+02 0.000000000000000000e+00
1.570000000000000000e+02 0.000000000000000000e+00
1.580000000000000000e+02 0.000000000000000000e+00
1.590000000000000000e+02 0.000000000000000000e+00
1.600000000000000000e+02 0.000000000000000000e+00
1.610000000000000000e+02 0.000000000000000000e+00
1.620000000000000000e+02 0.000000000000000000e+00
1.630000000000000000e+02 0.000000000000000000e+00
1.640000000000000000e+02 0.000000000000000000e+00
1.650000000000000000e+02 0.000000000000000000e+00
1.660000000000000000e+02 0.000000000000000000e+00
1.670000000000000000e+02 0.000000000000000000e+00
1.680000000000000000e+02 0.000000000000000000e+00
1.690000000000000000e+02 0.000000000000000000e+00
1.700000000000000000e+02 0.000000000000000000e+00
1.710000000000000000e+02 0.000000000000000000e+00
1.720000000000000000e+02 0.000000000000000000e+00
1.730000000000000000e+02 0.000000000000000000e+00
1.740000000000000000e+02 0.000000000000000000e+00
1.750000000000000000e+02 0.000000000000000000e+00
1.760000000000000000e+02 0.000000000000000000e+00
1.770000000000000000e+02 0.000000000000000000e+00
1.780000000000000000e+02 0.000000000000000000e+00
1.790000000000000000e+02 0.000000000000000000e+00
1.800000000000000000e+02 0.000000000000000000e+00
1.810000000000000000e+02 8.186406018232922355e-02
1.820000000000000000e+02 9.927702509332247871e+01
1.830000000000000000e+02 7.824387898153938181e+01
1.840000000000000000e+02 4.639958481850194261e+01
1.850000000000000000e+02 8.076651620489440120e+01
1.860000000000000000e+02 3.476159543248262196e+01
1.870000000000000000e+02 4.169422109313420499e+00
1.880000000000000000e+02 7.937694855246609116e+00
1.890000000000000000e+02 3.075002302012032374e+01
1.900000000000000000e+02 2.430711432482875622e+01
1.910000000000000000e+02 4.972828738075470767e+00
1.920000000000000000e+02 1.151799299626620865e+01
1.930000000000000000e+02 2.567717824725157527e+01
1.940000000000000000e+02 1.515483192866025242e+01
1.950000000000000000e+02 2.280283020535163629e+01
1.960000000000000000e+02 4.139422073221319209e+01
1.970000000000000000e+02 4.977888348890282089e+01
1.980000000000000000e+02 3.634255276083774078e+01
1.990000000000000000e+02 1.315297428500301180e+01
2.000000000000000000e+02 5.927772884878640625e+00
2.010000000000000000e+02 3.307301215515410320e+01
2.020000000000000000e+02 7.420320343289776588e+01
2.030000000000000000e+02 8.856381602572101031e+01
2.040000000000000000e+02 1.601816825140012952e+02
2.050000000000000000e+02 1.820866676208256649e+02
2.060000000000000000e+02 1.719377378759592716e+02
2.070000000000000000e+02 1.956787601534953183e+02
2.080000000000000000e+02 2.006241796515245994e+02
2.090000000000000000e+02 2.810354572495328398e+02
2.100000000000000000e+02 3.123238278572921445e+02
2.110000000000000000e+02 2.630440533388646713e+02
2.120000000000000000e+02 3.829955781788013383e+02
2.130000000000000000e+02 3.908037679527069486e+02
2.140000000000000000e+02 4.072513425549557269e+02
2.150000000000000000e+02 4.631436786558807057e+02
2.160000000000000000e+02 4.646687414644264891e+02
2.170000000000000000e+02 4.827441031522189974e+02
2.180000000000000000e+02 5.373286420037330799e+02
2.190000000000000000e+02 5.685089350964531150e+02
2.200000000000000000e+02 5.429882097262544676e+02
2.210000000000000000e+02 5.514430216760008534e+02
2.220000000000000000e+02 5.416687828873677972e+02
2.230000000000000000e+02 5.966936711263211919e+02
2.240000000000000000e+02 6.769336066168843900e+02
2.250000000000000000e+02 6.477512892968261440e+02
2.260000000000000000e+02 6.094495560049783762e+02
2.270000000000000000e+02 5.724186304293718877e+02
2.280000000000000000e+02 5.057335556108693027e+02
2.290000000000000000e+02 4.181501124455504623e+02
2.300000000000000000e+02 4.191765496784899483e+02
2.310000000000000000e+02 3.746202272557565607e+02
2.320000000000000000e+02 3.084983867454881192e+02
2.330000000000000000e+02 2.600732765816217125e+02
2.340000000000000000e+02 2.185450817050403600e+02
2.350000000000000000e+02 1.683929286040244051e+02
2.360000000000000000e+02 1.497976686994398676e+02
2.370000000000000000e+02 1.509206736209040969e+02
2.380000000000000000e+02 1.325045488487864418e+02
2.390000000000000000e+02 7.845036805641994704e+01
2.400000000000000000e+02 7.996607953131447744e+01
2.410000000000000000e+02 8.178867721219612008e+01
2.420000000000000000e+02 4.268553286455079387e+01
2.430000000000000000e+02 3.744819439444212605e+01
2.440000000000000000e+02 5.745581317776372288e+01
2.450000000000000000e+02 6.064346874922204478e+01
2.460000000000000000e+02 5.313776359601826726e+01
2.470000000000000000e+02 6.596151885500934497e+01
2.480000000000000000e+02 2.634162531010190023e+01
2.490000000000000000e+02 3.970789844015832415e+01
2.500000000000000000e+02 8.988624598631042772e+01
2.510000000000000000e+02 1.212411348060566638e+02
2.520000000000000000e+02 5.744015543663159917e+01
2.530000000000000000e+02 6.831597179630747974e+01
2.540000000000000000e+02 5.919353281891636698e+01
2.550000000000000000e+02 3.414932642812706831e+01
2.560000000000000000e+02 9.272649767683041944e+01
2.570000000000000000e+02 1.166031709603816466e+02
2.580000000000000000e+02 8.080587795063185297e+01
2.590000000000000000e+02 2.353913898568729479e+01
2.600000000000000000e+02 1.061233024745904885e+01
2.610000000000000000e+02 5.189960251607444341e+00
2.620000000000000000e+02 3.495632496577542980e+01
2.630000000000000000e+02 5.201295041891327031e+01
2.640000000000000000e+02 5.935156497821930088e+01
2.650000000000000000e+02 9.289170981746481459e+01
2.660000000000000000e+02 3.806477273952680918e+01
2.670000000000000000e+02 4.923906868077046539e+01
2.680000000000000000e+02 7.439094486621090141e+01
2.690000000000000000e+02 4.080865071339650285e+01
2.700000000000000000e+02 5.902205243518048761e+00
2.710000000000000000e+02 3.573201776602378477e+00
2.720000000000000000e+02 1.115584570447944834e+01
2.730000000000000000e+02 1.368953207218419443e+01
2.740000000000000000e+02 9.829042685335034335e+00
2.750000000000000000e+02 7.069233529654281867e-01
2.760000000000000000e+02 5.682985496577519058e+01
2.770000000000000000e+02 9.776770382078403543e+01
2.780000000000000000e+02 9.435715911636681597e+01
2.790000000000000000e+02 1.446807258867460746e+02
2.800000000000000000e+02 1.669582866002904495e+02
2.810000000000000000e+02 1.648455146857498903e+02
2.820000000000000000e+02 1.409149800248900988e+02
2.830000000000000000e+02 9.924744923044946177e+01
2.840000000000000000e+02 7.914131893383124350e+01
2.850000000000000000e+02 1.096793905413801440e+02
2.860000000000000000e+02 1.416127866832609925e+02
2.870000000000000000e+02 1.336394796515247947e+02
2.880000000000000000e+02 9.548988307819999477e+01
2.890000000000000000e+02 1.409069164281254984e+02
2.900000000000000000e+02 1.171039986932172354e+02
2.910000000000000000e+02 9.967721599253209774e+01
2.920000000000000000e+02 1.705819743674823883e+02
2.930000000000000000e+02 1.356619849201407249e+02
2.940000000000000000e+02 1.017626197759800561e+02
2.950000000000000000e+02 1.055218514724182910e+02
2.960000000000000000e+02 1.425253843186069105e+02
2.970000000000000000e+02 1.880937074465881551e+02
2.980000000000000000e+02 1.954827309829946103e+02
2.990000000000000000e+02 2.234469968263856572e+02
3.000000000000000000e+02 2.397998511512132325e+02
3.010000000000000000e+02 2.343740557445041190e+02
3.020000000000000000e+02 2.964117174652545827e+02
3.030000000000000000e+02 3.448840751918676233e+02
3.040000000000000000e+02 4.072768274424386732e+02
3.050000000000000000e+02 4.580971929060360708e+02
3.060000000000000000e+02 4.703413904998949420e+02
3.070000000000000000e+02 5.597275240406554531e+02
3.080000000000000000e+02 6.509372619580994979e+02
3.090000000000000000e+02 7.278201111387670608e+02
3.100000000000000000e+02 8.241830747977608098e+02
3.110000000000000000e+02 9.778954530595317465e+02
3.120000000000000000e+02 1.172089631611698223e+03
3.130000000000000000e+02 1.279856728894421167e+03
3.140000000000000000e+02 1.382932187927817495e+03
3.150000000000000000e+02 1.556653745695914722e+03
3.160000000000000000e+02 1.721276097490151415e+03
3.170000000000000000e+02 1.873504200788221624e+03
3.180000000000000000e+02 2.055049164039819516e+03
3.190000000000000000e+02 2.270430490354693120e+03
3.200000000000000000e+02 2.491646056419827801e+03
3.210000000000000000e+02 2.677180192036501921e+03
3.220000000000000000e+02 2.924466336652143582e+03
3.230000000000000000e+02 3.165569949595515482e+03
3.240000000000000000e+02 3.366205279344668270e+03
3.250000000000000000e+02 3.551064563783446374e+03
3.260000000000000000e+02 3.720470746733041324e+03
3.270000000000000000e+02 3.905582429697221869e+03
3.280000000000000000e+02 3.945327294959551637e+03
3.290000000000000000e+02 3.789939974694047123e+03
3.300000000000000000e+02 3.765049031321301754e+03
3.310000000000000000e+02 3.670299252437252107e+03
3.320000000000000000e+02 3.483116656502798378e+03
3.330000000000000000e+02 3.219776571873047033e+03
3.340000000000000000e+02 2.924174476042309379e+03
3.350000000000000000e+02 2.700714097075292102e+03
3.360000000000000000e+02 2.444869835718736340e+03
3.370000000000000000e+02 2.199233886745494146e+03
3.380000000000000000e+02 1.983937113461932086e+03
3.390000000000000000e+02 1.765270112424810804e+03
3.400000000000000000e+02 1.578569599253270098e+03
3.410000000000000000e+02 1.376748852520229320e+03
3.420000000000000000e+02 1.206649209707530190e+03
3.430000000000000000e+02 1.100042028209915998e+03
3.440000000000000000e+02 1.006247869680631766e+03
3.450000000000000000e+02 9.036298690520634409e+02
3.460000000000000000e+02 8.042488101431239329e+02
3.470000000000000000e+02 7.268489962463708025e+02
3.480000000000000000e+02 6.757607762082549243e+02
3.490000000000000000e+02 6.250011116365894850e+02
3.500000000000000000e+02 5.575757284943995273e+02
3.510000000000000000e+02 5.160727133789666823e+02
3.520000000000000000e+02 4.878447542418577996e+02
3.530000000000000000e+02 4.410606541683953310e+02
3.540000000000000000e+02 4.262109197884258265e+02
3.550000000000000000e+02 4.162204054138142624e+02
3.560000000000000000e+02 3.995900697635838128e+02
3.570000000000000000e+02 3.879061461315078532e+02
3.580000000000000000e+02 4.070023083385173663e+02
3.590000000000000000e+02 4.821088918274215303e+02
3.600000000000000000e+02 4.921248565028004691e+02
3.610000000000000000e+02 4.988872916199951533e+02
3.620000000000000000e+02 5.464677834059325505e+02
3.630000000000000000e+02 5.843111830740510868e+02
3.640000000000000000e+02 6.901085372744238384e+02
3.650000000000000000e+02 6.837470628500299199e+02
3.660000000000000000e+02 6.690472973449495839e+02
3.670000000000000000e+02 7.712416372951673793e+02
3.680000000000000000e+02 9.585451222360543397e+02
3.690000000000000000e+02 1.014876609831985434e+03
3.700000000000000000e+02 1.024197357809582854e+03
3.710000000000000000e+02 1.076688285210533650e+03
3.720000000000000000e+02 1.210490091267375419e+03
3.730000000000000000e+02 1.334676582745750238e+03
3.740000000000000000e+02 1.433890861232107909e+03
3.750000000000000000e+02 1.556459736984024858e+03
3.760000000000000000e+02 1.736352662588134081e+03
3.770000000000000000e+02 1.957053641982989575e+03
3.780000000000000000e+02 2.117938675171124487e+03
3.790000000000000000e+02 2.278328725425134508e+03
3.800000000000000000e+02 2.394251793196432118e+03
3.810000000000000000e+02 2.477382123003525976e+03
3.820000000000000000e+02 2.578629300560051433e+03
3.830000000000000000e+02 2.632045824517735582e+03
3.840000000000000000e+02 2.613136818540024706e+03
3.850000000000000000e+02 2.565731684297862103e+03
3.860000000000000000e+02 2.465717962455918496e+03
3.870000000000000000e+02 2.225194165491496278e+03
3.880000000000000000e+02 1.944579650280031728e+03
3.890000000000000000e+02 1.671825224227331773e+03
3.900000000000000000e+02 1.404291371215261734e+03
3.910000000000000000e+02 1.137724941091064011e+03
3.920000000000000000e+02 8.951314311761092313e+02
3.930000000000000000e+02 7.271876684778113713e+02
3.940000000000000000e+02 5.650021274009553736e+02
3.950000000000000000e+02 4.536438668740933622e+02
3.960000000000000000e+02 4.042161925549561374e+02
3.970000000000000000e+02 3.326020077162413600e+02
3.980000000000000000e+02 2.770552575606722598e+02
3.990000000000000000e+02 2.068713798382067353e+02
4.000000000000000000e+02 1.557425640738435106e+02
4.010000000000000000e+02 1.521774103920348864e+02
4.020000000000000000e+02 1.588584119477284560e+02
4.030000000000000000e+02 1.247880669985472792e+02
4.040000000000000000e+02 1.011452102613564819e+02
4.050000000000000000e+02 1.093848076332706540e+02
4.060000000000000000e+02 1.460774105164908292e+02
4.070000000000000000e+02 2.170915171541184350e+02
4.080000000000000000e+02 1.788594129848590057e+02
4.090000000000000000e+02 2.042205102468352038e+02
4.100000000000000000e+02 2.625450975731167205e+02
4.110000000000000000e+02 2.661681769757310008e+02
4.120000000000000000e+02 3.014056656502795022e+02
4.130000000000000000e+02 3.479031233513059647e+02
4.140000000000000000e+02 3.807534668326073870e+02
4.150000000000000000e+02 4.081574067205972369e+02
4.160000000000000000e+02 4.301945770634591213e+02
4.170000000000000000e+02 4.002092994814350959e+02
4.180000000000000000e+02 4.084044552789878821e+02
4.190000000000000000e+02 4.127385547490665658e+02
4.200000000000000000e+02 3.820281668948341007e+02
4.210000000000000000e+02 3.271229173407999156e+02
4.220000000000000000e+02 2.832469263790966920e+02
4.230000000000000000e+02 2.022141756274609747e+02
4.240000000000000000e+02 1.448198991910383029e+02
4.250000000000000000e+02 9.343048744244072168e+01
4.260000000000000000e+02 2.032797991910399560e+01
4.270000000000000000e+02 2.704688550093341703e+01
4.280000000000000000e+02 8.234596333126024348e+00
4.290000000000000000e+02 1.037620108960764753e+01
4.300000000000000000e+02 1.593855318606080829e+01
4.310000000000000000e+02 6.127425313213037583e+01
4.320000000000000000e+02 6.721599676208258245e+01
4.330000000000000000e+02 4.210164265712532483e+01
4.340000000000000000e+02 3.295838482265097014e+01
4.350000000000000000e+02 4.060178789462771931e+01
4.360000000000000000e+02 3.791821217174859271e+01
4.370000000000000000e+02 8.623136829910249546e+00
4.380000000000000000e+02 3.366677344741790989e+01
4.390000000000000000e+02 3.956952179593518792e+01
4.400000000000000000e+02 3.626918496162584660e+01
4.410000000000000000e+02 3.339447032607183274e+01
4.420000000000000000e+02 7.507045954583195169e+01
4.430000000000000000e+02 4.444831678904917993e+01
4.440000000000000000e+02 2.107159967434101588e+01
4.450000000000000000e+02 5.271722419328126108e+01
4.460000000000000000e+02 9.115044308857062560e+01
4.470000000000000000e+02 9.092402505289359738e+01
4.480000000000000000e+02 1.088762274782247630e+02
4.490000000000000000e+02 1.099356415888820067e+02
4.500000000000000000e+02 1.238356029247041761e+02
4.510000000000000000e+02 1.538300038373774328e+02
4.520000000000000000e+02 1.013279101555692705e+02
4.530000000000000000e+02 1.099526488695291278e+02
4.540000000000000000e+02 7.787337749014604071e+01
4.550000000000000000e+02 6.643368604646435926e+01
4.560000000000000000e+02 9.847410600497789801e+01
4.570000000000000000e+02 4.862666663347857110e+01
4.580000000000000000e+02 4.891966509230480398e+01
4.590000000000000000e+02 2.964123709811168439e+01
4.600000000000000000e+02 2.030520543870529337e+01
4.610000000000000000e+02 2.392603626633540159e+01
4.620000000000000000e+02 1.909799202904026316e+01
4.630000000000000000e+02 3.855000902302682775e+00
4.640000000000000000e+02 6.179174819954326381e+00
4.650000000000000000e+02 1.005543439236781467e+01
4.660000000000000000e+02 2.053071668077165413e+01
4.670000000000000000e+02 3.274096173615421890e+01
4.680000000000000000e+02 3.291584884695153335e+01
4.690000000000000000e+02 1.841466218004551436e+01
4.700000000000000000e+02 5.649728006222753507e+00
4.710000000000000000e+02 5.552794728328603879e-01
4.720000000000000000e+02 5.275080137731001706e+00
4.730000000000000000e+02 2.713494467330430382e+01
4.740000000000000000e+02 4.577031836748041371e+01
4.750000000000000000e+02 6.722787089607872701e+01
4.760000000000000000e+02 2.367194219249054044e+01
4.770000000000000000e+02 1.219482725217760688e+01
4.780000000000000000e+02 1.624488372951680759e+01
4.790000000000000000e+02 8.803809382078469525e+00
4.800000000000000000e+02 1.633552872433084957e+01
4.810000000000000000e+02 4.342887556316068753e+01
4.820000000000000000e+02 6.684372481020534451e+01
4.830000000000000000e+02 5.620701954366314368e+01
4.840000000000000000e+02 1.882051850653407143e+01
4.850000000000000000e+02 4.076589943580101760e+01
4.860000000000000000e+02 8.685472577473579747e+01
4.870000000000000000e+02 9.382399610039406923e+01
4.880000000000000000e+02 5.545993089607974724e+01
4.890000000000000000e+02 1.870111719352782842e+01
4.900000000000000000e+02 5.394281706077662619e+01
4.910000000000000000e+02 8.802270802738030397e+01
4.920000000000000000e+02 7.544062555693801642e+01
4.930000000000000000e+02 6.697761232109553475e+01
4.940000000000000000e+02 9.149441180008315655e+01
4.950000000000000000e+02 1.074704139597592558e+02
4.960000000000000000e+02 1.019523578510683706e+02
4.970000000000000000e+02 1.146783782662801912e+02
4.980000000000000000e+02 1.704289135656499354e+02
4.990000000000000000e+02 1.764657311346192046e+02
5.000000000000000000e+02 2.249774377644125991e+02
5.010000000000000000e+02 2.460289081103506135e+02
5.020000000000000000e+02 2.636490070317356640e+02
5.030000000000000000e+02 3.259995250103694957e+02
5.040000000000000000e+02 3.657923976146029190e+02
5.050000000000000000e+02 4.302439888404894646e+02
5.060000000000000000e+02 4.682149716448874983e+02
5.070000000000000000e+02 5.244294116365913396e+02
5.080000000000000000e+02 6.122222812487037800e+02
5.090000000000000000e+02 6.302359093341640346e+02
5.100000000000000000e+02 6.897537435594289263e+02
5.110000000000000000e+02 7.495055294959560115e+02
5.120000000000000000e+02 7.949165461729922981e+02
5.130000000000000000e+02 8.123144828873678307e+02
5.140000000000000000e+02 7.935187774942959322e+02
5.150000000000000000e+02 7.974023219871395440e+02
5.160000000000000000e+02 7.675501266334788397e+02
5.170000000000000000e+02 7.370476104750056265e+02
5.180000000000000000e+02 7.352097765193942678e+02
5.190000000000000000e+02 7.522611819539516773e+02
5.200000000000000000e+02 7.173524149315636578e+02
5.210000000000000000e+02 7.424416825762286862e+02
5.220000000000000000e+02 7.865731700477085724e+02
5.230000000000000000e+02 8.374475346744078479e+02
5.240000000000000000e+02 8.894888866832603753e+02
5.250000000000000000e+02 9.198562149968879567e+02
5.260000000000000000e+02 9.581937893405219029e+02
5.270000000000000000e+02 9.912114133167387990e+02
5.280000000000000000e+02 1.038126539722047937e+03
5.290000000000000000e+02 1.091117701161343348e+03
5.300000000000000000e+02 1.114324975731175755e+03
5.310000000000000000e+02 1.093374023439121174e+03
5.320000000000000000e+02 1.080019812279610278e+03
5.330000000000000000e+02 1.042993848164281872e+03
5.340000000000000000e+02 1.001214350715619389e+03
5.350000000000000000e+02 9.833458800248907892e+02
5.360000000000000000e+02 9.533893520638868040e+02
5.370000000000000000e+02 9.048937063472305908e+02
5.380000000000000000e+02 8.761510567724541261e+02
5.390000000000000000e+02 8.536306726820153017e+02
5.400000000000000000e+02 8.097769934868267683e+02
5.410000000000000000e+02 7.519537727857300524e+02
5.420000000000000000e+02 7.416585412777435522e+02
5.430000000000000000e+02 6.580730837585614381e+02
5.440000000000000000e+02 5.633096621655281524e+02
5.450000000000000000e+02 4.962862360091292544e+02
5.460000000000000000e+02 4.471464754873493348e+02
5.470000000000000000e+02 4.507044180045638768e+02
5.480000000000000000e+02 4.004536751711274860e+02
5.490000000000000000e+02 3.504957571547080875e+02
5.500000000000000000e+02 3.222842218004562937e+02
5.510000000000000000e+02 3.141966485376478317e+02
5.520000000000000000e+02 3.265135719825799470e+02
5.530000000000000000e+02 3.239870193528308846e+02
5.540000000000000000e+02 2.704749646546342206e+02
5.550000000000000000e+02 2.486097909166314253e+02
5.560000000000000000e+02 2.723338343289764794e+02
5.570000000000000000e+02 2.756508795270685823e+02
5.580000000000000000e+02 2.371645603691430892e+02
5.590000000000000000e+02 2.287105075503009743e+02
5.600000000000000000e+02 2.117247174859997187e+02
5.610000000000000000e+02 2.127392761045417160e+02
5.620000000000000000e+02 2.428998175482259398e+02
5.630000000000000000e+02 2.395015580377530853e+02
5.640000000000000000e+02 1.400049411947730391e+02
5.650000000000000000e+02 1.504902288944199995e+02
5.660000000000000000e+02 2.007909981331672213e+02
5.670000000000000000e+02 2.073040154324825153e+02
5.680000000000000000e+02 1.621111555901254064e+02
5.690000000000000000e+02 9.206326930512251749e+01
5.700000000000000000e+02 1.065938139805036826e+02
5.710000000000000000e+02 1.294626739265717674e+02
5.720000000000000000e+02 1.177166415473957812e+02
5.730000000000000000e+02 1.024360654221097349e+02
5.740000000000000000e+02 1.379092639493894410e+02
5.750000000000000000e+02 1.580405812733303321e+02
5.760000000000000000e+02 1.176603110765415749e+02
5.770000000000000000e+02 1.055761473760621243e+02
5.780000000000000000e+02 1.151700654500211840e+02
5.790000000000000000e+02 9.785179502592831113e+01
5.800000000000000000e+02 9.784998523335410425e+01
5.810000000000000000e+02 8.858887340937364741e+01
5.820000000000000000e+02 7.246396401991268021e+01
5.830000000000000000e+02 6.019634549056203809e+01
5.840000000000000000e+02 3.358019187473926337e+01
5.850000000000000000e+02 8.991750789048499115e+00
5.860000000000000000e+02 8.660820723708789615e+01
5.870000000000000000e+02 5.088505979879444396e+01
5.880000000000000000e+02 3.983790511512233934e+01
5.890000000000000000e+02 3.820693845674981759e+01
5.900000000000000000e+02 5.245632179838469078e+00
5.910000000000000000e+02 3.016137597179123730e+01
5.920000000000000000e+02 6.124182068657986378e+01
5.930000000000000000e+02 5.178513779506370440e+01
5.940000000000000000e+02 1.498973722588744906e+01
5.950000000000000000e+02 4.095308957685240614e+00
5.960000000000000000e+02 1.510913783530398646e+01
5.970000000000000000e+02 2.174226637627048575e+01
5.980000000000000000e+02 2.852071387678817516e+00
5.990000000000000000e+02 1.465532252644719335e+01
6.000000000000000000e+02 2.457382818294971472e+01
6.010000000000000000e+02 2.982331520116147061e+01
6.020000000000000000e+02 2.852085342667419710e+01
6.030000000000000000e+02 8.725385942750884638e+00
6.040000000000000000e+02 2.015590796557442488e+01
6.050000000000000000e+02 1.649740814768707864e+01
6.060000000000000000e+02 1.098471167641561941e+01
6.070000000000000000e+02 1.831103189133187570e+01
6.080000000000000000e+02 3.808653877411303057e+01
6.090000000000000000e+02 2.868292679029300984e+01
6.100000000000000000e+02 1.274022001244201618e+01
6.110000000000000000e+02 1.923075063057455836e+01
6.120000000000000000e+02 3.637779408836413708e+00
6.130000000000000000e+02 2.917817222401893318e+01
6.140000000000000000e+02 2.205482004563400977e+01
6.150000000000000000e+02 4.721637632648827321e+01
6.160000000000000000e+02 4.513553859780120803e+01
6.170000000000000000e+02 6.363654436838857009e+01
6.180000000000000000e+02 7.472221372121988736e+01
6.190000000000000000e+02 2.433485740925091179e+01
6.200000000000000000e+02 2.114267404272973394e+01
6.210000000000000000e+02 3.359021345986296581e+01
6.220000000000000000e+02 5.367293944617316015e+01
6.230000000000000000e+02 8.685265537855204343e+01
6.240000000000000000e+02 9.848916828458850148e+01
6.250000000000000000e+02 5.374374364447223940e+01
6.260000000000000000e+02 1.222649836341003322e+02
6.270000000000000000e+02 9.809732041070300568e+01
6.280000000000000000e+02 1.103728424808130626e+02
6.290000000000000000e+02 1.508436114706494777e+02
6.300000000000000000e+02 1.713066607342876466e+02
6.310000000000000000e+02 2.004574667703794830e+02
6.320000000000000000e+02 2.101084411325451242e+02
6.330000000000000000e+02 1.887934283136278566e+02
6.340000000000000000e+02 2.146856998962864793e+02
6.350000000000000000e+02 2.666500612321088965e+02
6.360000000000000000e+02 2.994858144990664641e+02
6.370000000000000000e+02 3.437086821613766006e+02
6.380000000000000000e+02 4.167739098527258648e+02
6.390000000000000000e+02 5.022710750259276438e+02
6.400000000000000000e+02 6.009264721219649346e+02
6.410000000000000000e+02 7.176821532559073376e+02
6.420000000000000000e+02 8.344718427712099356e+02
6.430000000000000000e+02 9.079871955818301785e+02
6.440000000000000000e+02 9.997086246370772642e+02
6.450000000000000000e+02 1.161452655880519842e+03
6.460000000000000000e+02 1.323786577473549869e+03
6.470000000000000000e+02 1.440547641227704389e+03
6.480000000000000000e+02 1.539589612528518956e+03
6.490000000000000000e+02 1.674948154947102694e+03
6.500000000000000000e+02 1.784525708834506531e+03
6.510000000000000000e+02 1.927075044596552971e+03
6.520000000000000000e+02 2.005356376270482087e+03
6.530000000000000000e+02 2.032689265242637020e+03
6.540000000000000000e+02 2.081411366521469063e+03
6.550000000000000000e+02 2.036411650487451652e+03
6.560000000000000000e+02 1.997685990043559286e+03
6.570000000000000000e+02 1.957268101016386481e+03
6.580000000000000000e+02 1.931831992532669574e+03
6.590000000000000000e+02 1.949927733665216010e+03
6.600000000000000000e+02 2.014347824725162127e+03
6.610000000000000000e+02 2.076667642397844702e+03
6.620000000000000000e+02 2.182696368388297287e+03
6.630000000000000000e+02 2.351018815183564584e+03
6.640000000000000000e+02 2.552718103505505951e+03
6.650000000000000000e+02 2.706356261356561845e+03
6.660000000000000000e+02 2.810433864136065495e+03
6.670000000000000000e+02 3.112370842803810319e+03
6.680000000000000000e+02 3.172644270690726444e+03
6.690000000000000000e+02 3.278791234391202579e+03
6.700000000000000000e+02 3.317124329946082071e+03
6.710000000000000000e+02 3.222699916822236446e+03
6.720000000000000000e+02 3.080512517734910489e+03
6.730000000000000000e+02 2.862639658233096725e+03
6.740000000000000000e+02 2.594115656710220719e+03
6.750000000000000000e+02 2.237623324414015769e+03
6.760000000000000000e+02 1.942604855246778698e+03
6.770000000000000000e+02 1.702287813939005900e+03
6.780000000000000000e+02 1.434761006430192083e+03
6.790000000000000000e+02 1.263886188718381618e+03
6.800000000000000000e+02 1.063655730761263840e+03
6.810000000000000000e+02 9.030363006222710283e+02
6.820000000000000000e+02 7.887612269446201481e+02
6.830000000000000000e+02 6.937113816013306860e+02
6.840000000000000000e+02 5.997841394316559445e+02
6.850000000000000000e+02 5.174587655673104791e+02
6.860000000000000000e+02 4.253988858120730470e+02
6.870000000000000000e+02 3.668945118025310421e+02
6.880000000000000000e+02 3.563994302634310998e+02
6.890000000000000000e+02 3.275985516490346754e+02
6.900000000000000000e+02 2.407785476042307096e+02
6.910000000000000000e+02 1.801586859365263535e+02
6.920000000000000000e+02 1.829668183157026817e+02
6.930000000000000000e+02 2.055002511304715256e+02
6.940000000000000000e+02 1.758020304708538788e+02
6.950000000000000000e+02 1.527207988799017926e+02
6.960000000000000000e+02 1.612397072998728049e+02
6.970000000000000000e+02 9.073816160547769982e+01
6.980000000000000000e+02 6.630546017008899184e+01
6.990000000000000000e+02 7.165246242637941521e+01
7.000000000000000000e+02 5.930621016179266292e+01
7.010000000000000000e+02 8.096191999999872735e+01
7.020000000000000000e+02 1.239709514309415397e+02
7.030000000000000000e+02 8.702357083800021087e+01
7.040000000000000000e+02 5.393420871810818795e+01
7.050000000000000000e+02 6.433196827872289703e+01
7.060000000000000000e+02 1.852707789047676812e+01
7.070000000000000000e+02 6.910606218834121961e+00
7.080000000000000000e+02 1.474035482265065689e+01
7.090000000000000000e+02 1.470766094586251072e+01
7.100000000000000000e+02 3.338119142708958265e+01
7.110000000000000000e+02 9.209322676000311958e+00
7.120000000000000000e+02 1.171624279817474346e+01
7.130000000000000000e+02 6.978010065338937196e+00
7.140000000000000000e+02 6.862314077161949299e+00
7.150000000000000000e+02 1.043314412155207549e+01
7.160000000000000000e+02 2.939377255133830502e+01
7.170000000000000000e+02 3.381160089607965347e+01
7.180000000000000000e+02 2.974754795892969028e+01
7.190000000000000000e+02 1.814377163866423004e+01
7.200000000000000000e+02 4.782265640738281753e+00
7.210000000000000000e+02 1.705807703899571237e+01
7.220000000000000000e+02 8.405836876607390096e+00
7.230000000000000000e+02 3.020718296826443350e+01
7.240000000000000000e+02 6.938963925534157795e+01
7.250000000000000000e+02 8.853306420157611001e+01
7.260000000000000000e+02 7.599108648620567408e+01
7.270000000000000000e+02 4.851527397635328498e+01
7.280000000000000000e+02 2.711986175445844438e+01
7.290000000000000000e+02 1.415121123003542536e+01
7.300000000000000000e+02 9.048419944617327815e+01
7.310000000000000000e+02 1.131259533388633685e+02
7.320000000000000000e+02 1.183192632856251976e+02
7.330000000000000000e+02 1.274308307612528495e+02
7.340000000000000000e+02 1.158458858950428834e+02
7.350000000000000000e+02 1.370206251814975928e+02
7.360000000000000000e+02 1.264616036714374587e+02
7.370000000000000000e+02 1.393935741754824846e+02
7.380000000000000000e+02 1.613604573947313838e+02
7.390000000000000000e+02 1.384812639908739129e+02
7.400000000000000000e+02 1.004403611366938378e+02
7.410000000000000000e+02 1.352577738643434486e+02
7.420000000000000000e+02 1.215761366314044665e+02
7.430000000000000000e+02 1.218038723501348386e+02
7.440000000000000000e+02 1.195057941091060485e+02
7.450000000000000000e+02 1.079784598008714198e+02
7.460000000000000000e+02 9.777799691972620622e+01
7.470000000000000000e+02 1.105313207923664152e+02
7.480000000000000000e+02 1.746194087100789432e+02
7.490000000000000000e+02 1.472587818502381936e+02
7.500000000000000000e+02 1.011766240199126941e+02
7.510000000000000000e+02 9.964087864371583692e+01
7.520000000000000000e+02 9.346936706077627832e+01
7.530000000000000000e+02 2.673486895913871919e+01
7.540000000000000000e+02 2.264708434259704006e+01
7.550000000000000000e+02 5.761328685749757028e+01
7.560000000000000000e+02 1.772550631653315989e+01
7.570000000000000000e+02 1.475882875736185440e+01
7.580000000000000000e+02 2.468161531217631932e+01
7.590000000000000000e+02 5.692485985065619758e+00
7.600000000000000000e+02 5.622725809207796743e+00
7.610000000000000000e+02 4.851730475005071597e+00
7.620000000000000000e+02 1.285114787388473090e+01
7.630000000000000000e+02 3.071635470649244226e+01
7.640000000000000000e+02 1.334244812196637575e+01
7.650000000000000000e+02 6.943256362372958179e+00
7.660000000000000000e+02 1.196272544492825141e+01
7.670000000000000000e+02 1.534059252437242193e+01
7.680000000000000000e+02 8.248708581207372603e+00
7.690000000000000000e+02 3.856835795270619371e+01
7.700000000000000000e+02 1.448918041402336598e+01
7.710000000000000000e+02 2.110012083592745569e+01
7.720000000000000000e+02 4.511938045633761618e+01
7.730000000000000000e+02 1.808996944618327163e+00
7.740000000000000000e+02 1.719629233353967734e+01
7.750000000000000000e+02 5.732535810205370552e+01
7.760000000000000000e+02 1.525018907322213479e+01
7.770000000000000000e+02 2.220175838241283728e+01
7.780000000000000000e+02 3.876618568761681161e+01
7.790000000000000000e+02 2.123229891101430056e+01
7.800000000000000000e+02 3.245937834301127367e+01
7.810000000000000000e+02 5.232465990873274109e+01
7.820000000000000000e+02 3.725116065961380230e+01
7.830000000000000000e+02 5.897376669432969010e+00
7.840000000000000000e+02 2.870126824102440466e+00
7.850000000000000000e+02 2.145506954781288300e+01
7.860000000000000000e+02 3.932697843011206373e+01
7.870000000000000000e+02 2.538964706285025841e+01
7.880000000000000000e+02 6.087784631196907270e+01
7.890000000000000000e+02 3.785634078199620944e+01
7.900000000000000000e+02 2.733171078614366323e+01
7.910000000000000000e+02 4.632728507778367089e+01
7.920000000000000000e+02 6.253962804604859826e+01
7.930000000000000000e+02 5.069915971375262131e+01
7.940000000000000000e+02 3.852754061398020724e+01
7.950000000000000000e+02 8.111814711885544682e+01
7.960000000000000000e+02 8.215234776602349598e+01
7.970000000000000000e+02 8.113409337689283518e+01
7.980000000000000000e+02 9.944820152665526791e+01
7.990000000000000000e+02 9.564360380418898444e+01
8.000000000000000000e+02 6.959966515245817220e+01
8.010000000000000000e+02 1.288212931549497569e+02
8.020000000000000000e+02 9.575374891308730696e+01
8.030000000000000000e+02 8.040018139568657318e+01
8.040000000000000000e+02 9.649641818709743291e+01
8.050000000000000000e+02 8.696839334163223612e+01
8.060000000000000000e+02 6.189873279552119101e+01
8.070000000000000000e+02 8.092872006637595916e+01
8.080000000000000000e+02 1.000475103546977209e+02
8.090000000000000000e+02 1.294595039402736063e+02
8.100000000000000000e+02 1.261448292470441004e+02
8.110000000000000000e+02 9.943498656710218597e+01
8.120000000000000000e+02 9.139435686437192885e+01
8.130000000000000000e+02 1.174893015971797894e+02
8.140000000000000000e+02 1.372688631611700032e+02
8.150000000000000000e+02 1.065557715930294478e+02
8.160000000000000000e+02 9.143863126737269909e+01
8.170000000000000000e+02 1.270176912673728111e+02
8.180000000000000000e+02 1.259637350757088541e+02
8.190000000000000000e+02 1.016875825762288486e+02
8.200000000000000000e+02 1.043908891723711605e+02
8.210000000000000000e+02 1.223737705455293820e+02
8.220000000000000000e+02 1.477185656502796576e+02
8.230000000000000000e+02 1.471398438705660681e+02
8.240000000000000000e+02 1.232473429371500231e+02
8.250000000000000000e+02 1.055694689690935775e+02
8.260000000000000000e+02 1.169278253059529931e+02
8.270000000000000000e+02 1.296633450736360942e+02
8.280000000000000000e+02 1.055356921593026982e+02
8.290000000000000000e+02 1.114507151389470323e+02
8.300000000000000000e+02 1.580976237295163571e+02
8.310000000000000000e+02 1.048632743559414848e+02
8.320000000000000000e+02 6.613893387391132705e+01
8.330000000000000000e+02 6.630981150591152584e+01
8.340000000000000000e+02 7.783249124455572598e+01
8.350000000000000000e+02 1.056802566984651151e+02
8.360000000000000000e+02 6.798506535366053072e+01
8.370000000000000000e+02 6.590434336652155878e+01
8.380000000000000000e+02 8.185195695354654788e+01
8.390000000000000000e+02 8.582462199958517601e+01
8.400000000000000000e+02 5.932343266957039418e+01
8.410000000000000000e+02 4.829752147656613204e+01
8.420000000000000000e+02 8.485116482887293898e+01
8.430000000000000000e+02 1.935405929475208708e+01
8.440000000000000000e+02 1.501883229205532366e+01
8.450000000000000000e+02 2.613327696328591188e+01
8.460000000000000000e+02 2.995457494710650082e+01
8.470000000000000000e+02 2.823450208463011535e+01
8.480000000000000000e+02 4.427504438083384031e+01
8.490000000000000000e+02 2.149047693839484552e+01
8.500000000000000000e+02 1.979362286040252528e+01
8.510000000000000000e+02 9.090989128811420628e+00
8.520000000000000000e+02 7.473933198091685881e+00
8.530000000000000000e+02 1.371758102883219088e+01
8.540000000000000000e+02 1.984220222775350351e+01
8.550000000000000000e+02 3.880014898569310589e+00
8.560000000000000000e+02 5.572819527691347474e+01
8.570000000000000000e+02 1.656911823480594137e+01
8.580000000000000000e+02 4.569886647449146189e+00
8.590000000000000000e+02 1.367346111802526920e+01
8.600000000000000000e+02 2.060149362787802119e+01
8.610000000000000000e+02 8.504068266487172068e+00
8.620000000000000000e+02 2.278863510557922467e+01
8.630000000000000000e+02 5.065555526032009936e+01
8.640000000000000000e+02 7.710841459975302570e+00
8.650000000000000000e+02 3.387937687616634008e+01
8.660000000000000000e+02 7.145568431030842760e+01
8.670000000000000000e+02 4.053465217337250692e+01
8.680000000000000000e+02 5.832847726820074286e+01
8.690000000000000000e+02 6.909570404480503214e+01
8.700000000000000000e+02 4.476223192906041248e+01
8.710000000000000000e+02 8.185828291433311676e+01
8.720000000000000000e+02 8.550697153702549258e+01
8.730000000000000000e+02 9.989451482679923799e+01
8.740000000000000000e+02 1.094847309894214078e+02
8.750000000000000000e+02 1.144354657610948749e+02
8.760000000000000000e+02 1.220947137730759522e+02
8.770000000000000000e+02 1.421488560049773469e+02
8.780000000000000000e+02 1.642765625881375513e+02
8.790000000000000000e+02 1.615659090230242043e+02
8.800000000000000000e+02 1.789489227753570901e+02
8.810000000000000000e+02 2.124644811903768584e+02
8.820000000000000000e+02 2.044482403028423505e+02
8.830000000000000000e+02 2.115257291225883023e+02
8.840000000000000000e+02 1.944630660858746580e+02
8.850000000000000000e+02 1.615380604853761213e+02
8.860000000000000000e+02 2.010789145198094161e+02
8.870000000000000000e+02 1.647241583281480644e+02
8.880000000000000000e+02 2.199913769135041264e+02
8.890000000000000000e+02 1.867658326280845813e+02
8.900000000000000000e+02 1.689459107239157163e+02
8.910000000000000000e+02 1.720089554034429113e+02
8.920000000000000000e+02 1.598261918481638020e+02
8.930000000000000000e+02 1.573063913503419258e+02
8.940000000000000000e+02 1.726498189794645270e+02
8.950000000000000000e+02 1.484695496577488711e+02
8.960000000000000000e+02 1.240848664592419794e+02
8.970000000000000000e+02 7.297376342875003274e+01
8.980000000000000000e+02 8.879484251347807344e+01
8.990000000000000000e+02 1.045604436009132741e+02
9.000000000000000000e+02 5.955137196639741859e+01
9.010000000000000000e+02 3.050650449605986836e+01
9.020000000000000000e+02 4.119060178593542787e+00
9.030000000000000000e+02 1.131134300456329811e+01
9.040000000000000000e+02 4.127805433222869169e+01
9.050000000000000000e+02 3.983529954573596399e+01
9.060000000000000000e+02 1.812915341879368114e+01
9.070000000000000000e+02 3.563552083367959256e+01
9.080000000000000000e+02 1.147643183571959113e+01
9.090000000000000000e+02 1.263344001244551329e+01
9.100000000000000000e+02 4.595084362995149441e+00
9.110000000000000000e+02 1.284681969508072452e+00
9.120000000000000000e+02 9.861784380626485103e+00
9.130000000000000000e+02 1.082984850694819379e+01
9.140000000000000000e+02 1.851126912673761282e+01
9.150000000000000000e+02 4.521473726197537957e+00
9.160000000000000000e+02 1.488326191661480635e+01
9.170000000000000000e+02 9.144979490354680607e+00
9.180000000000000000e+02 8.528365161169899622e+00
9.190000000000000000e+02 4.495952522920653394e+01
9.200000000000000000e+02 2.231727087118750674e+01
9.210000000000000000e+02 5.049043728479756510e+01
9.220000000000000000e+02 7.011915451565981527e+01
9.230000000000000000e+02 2.309548414975986930e+01
9.240000000000000000e+02 1.140623530194902813e+01
9.250000000000000000e+02 3.497968003733498676e+01
9.260000000000000000e+02 6.516803498651829329e+01
9.270000000000000000e+02 8.829972486105393159e+01
9.280000000000000000e+02 8.099112541588932856e+01
9.290000000000000000e+02 5.659957296826453188e+01
9.300000000000000000e+02 6.003263272500992542e+01
9.310000000000000000e+02 8.911135739058281047e+01
9.320000000000000000e+02 1.076417580004147254e+02
9.330000000000000000e+02 1.453015331605148219e+02
9.340000000000000000e+02 1.781867714374616867e+02
9.350000000000000000e+02 2.099059018875757090e+02
9.360000000000000000e+02 2.133670406055575484e+02
9.370000000000000000e+02 2.654173609209736924e+02
9.380000000000000000e+02 3.402060426260122767e+02
9.390000000000000000e+02 3.902619993777246350e+02
9.400000000000000000e+02 4.504144109935718348e+02
9.410000000000000000e+02 5.147305650694884207e+02
9.420000000000000000e+02 5.468425071561900950e+02
9.430000000000000000e+02 6.301767581207243438e+02
9.440000000000000000e+02 7.317494425015571551e+02
9.450000000000000000e+02 8.170975434557138897e+02
9.460000000000000000e+02 8.409720372536821742e+02
9.470000000000000000e+02 8.473192998133163201e+02
9.480000000000000000e+02 9.118392876166776659e+02
9.490000000000000000e+02 9.207963605476040811e+02
9.500000000000000000e+02 8.605858897138115253e+02
9.510000000000000000e+02 8.584412425430405165e+02
9.520000000000000000e+02 8.071847056627244683e+02
9.530000000000000000e+02 7.054449232683523405e+02
9.540000000000000000e+02 6.071990279817451892e+02
9.550000000000000000e+02 5.315420799419200648e+02
9.560000000000000000e+02 4.661984414350887391e+02
9.570000000000000000e+02 4.145909683260723000e+02
9.580000000000000000e+02 3.081792521053718588e+02
9.590000000000000000e+02 2.449870053919528345e+02
9.600000000000000000e+02 1.349027323999156351e+02
9.610000000000000000e+02 1.299819067205974079e+02
9.620000000000000000e+02 1.526951312525920628e+02
9.630000000000000000e+02 9.324977444513542935e+01
9.640000000000000000e+02 2.832582305330852890e+01
9.650000000000000000e+02 4.826090665214699271e+01
9.660000000000000000e+02 5.150442752955814285e+01
9.670000000000000000e+02 3.101506205973876007e+01
9.680000000000000000e+02 2.530809891723713889e+01
9.690000000000000000e+02 3.813516214270895688e+01
9.700000000000000000e+02 6.270670587429962950e+01
9.710000000000000000e+02 1.168458707778472672e+02
9.720000000000000000e+02 1.626754001244555639e+02
9.730000000000000000e+02 1.493106333125903973e+02
9.740000000000000000e+02 2.222495527276498990e+02
9.750000000000000000e+02 2.497345570628498024e+02
9.760000000000000000e+02 3.022446936735106533e+02
9.770000000000000000e+02 3.795757931549471209e+02
9.780000000000000000e+02 4.779339146442645188e+02
9.790000000000000000e+02 6.027727574865178894e+02
9.800000000000000000e+02 7.174370317983814402e+02
9.810000000000000000e+02 8.365825121551580423e+02
9.820000000000000000e+02 1.040018544504351212e+03
9.830000000000000000e+02 1.271818612113666404e+03
9.840000000000000000e+02 1.528262813316733400e+03
9.850000000000000000e+02 1.831927309415175387e+03
9.860000000000000000e+02 2.191631313213020348e+03
9.870000000000000000e+02 2.592630119062424910e+03
9.880000000000000000e+02 3.019300959352959580e+03
9.890000000000000000e+02 3.482044248288727431e+03
9.900000000000000000e+02 3.981284215100587062e+03
9.910000000000000000e+02 4.414311590126527335e+03
9.920000000000000000e+02 4.832229191039200487e+03
9.930000000000000000e+02 5.233511283136275779e+03
9.940000000000000000e+02 5.512481626633481937e+03
9.950000000000000000e+02 5.687038372121968678e+03
9.960000000000000000e+02 5.701757888612319221e+03
9.970000000000000000e+02 5.542528308649661994e+03
9.980000000000000000e+02 5.330269891101438589e+03
9.990000000000000000e+02 5.024681716241429967e+03
1.000000000000000000e+03 4.506434423236493785e+03
1.001000000000000000e+03 4.053539900414943531e+03
1.002000000000000000e+03 3.627564289855086372e+03
1.003000000000000000e+03 3.138470244813268891e+03
1.004000000000000000e+03 2.753709190871379633e+03
1.005000000000000000e+03 2.444890531120322976e+03
1.006000000000000000e+03 2.107042333333340139e+03
1.007000000000000000e+03 1.851556491701239338e+03
1.008000000000000000e+03 1.640328122406638613e+03
1.009000000000000000e+03 1.422893309128627834e+03
1.010000000000000000e+03 1.289987391304345920e+03
1.011000000000000000e+03 1.212221547717843805e+03
1.012000000000000000e+03 1.086796224066383729e+03
1.013000000000000000e+03 9.086314771784259392e+02
1.014000000000000000e+03 7.747905987551828275e+02
1.015000000000000000e+03 7.357494381742735641e+02
1.016000000000000000e+03 7.155343226141094419e+02
1.017000000000000000e+03 5.932833535269678578e+02
1.018000000000000000e+03 4.822506869565228840e+02
1.019000000000000000e+03 4.646818813278002267e+02
1.020000000000000000e+03 4.165120141078837719e+02
1.021000000000000000e+03 3.925955921161827291e+02
1.022000000000000000e+03 3.620619186721986011e+02
1.023000000000000000e+03 3.063677979253118338e+02
1.024000000000000000e+03 2.890918062240661470e+02
1.025000000000000000e+03 2.921249545643166243e+02
1.026000000000000000e+03 3.073477392116183182e+02
1.027000000000000000e+03 2.786401120331944981e+02
1.028000000000000000e+03 2.632856796680492835e+02
1.029000000000000000e+03 2.577568713692949700e+02
1.030000000000000000e+03 2.580702182572612173e+02
1.031000000000000000e+03 2.169231230290419887e+02
1.032000000000000000e+03 2.056491082987647303e+02
1.033000000000000000e+03 2.252044589211714651e+02
1.034000000000000000e+03 8.414708840249002719e+01
1.035000000000000000e+03 1.583946000000024128e+02
1.036000000000000000e+03 1.376987775933639000e+02
1.037000000000000000e+03 1.070625389211623855e+02
1.038000000000000000e+03 3.748029896265203575e+01
1.039000000000000000e+03 7.207784066389646682e+01
1.040000000000000000e+03 7.166166182573057597e+01
1.041000000000000000e+03 1.060540614107874191e+01
1.042000000000000000e+03 3.227129481327976634e+01
1.043000000000000000e+03 4.441186255186656950e+01
1.044000000000000000e+03 3.984131000000000000e+01
1.045000000000000000e+03 9.396539999999929949e-01
1.046000000000000000e+03 2.027789070539257565e+01
1.047000000000000000e+03 1.629043744099466906e+01
1.048000000000000000e+03 6.822802792531792448e+00
1.049000000000000000e+03 7.980731809129030907e+00
1.050000000000000000e+03 2.588700097510426446e+01
1.051000000000000000e+03 2.299679900414927403e+01
1.052000000000000000e+03 1.766274933609712505e+01
1.053000000000000000e+03 1.959928672199120925e+01
1.054000000000000000e+03 9.991292531119528419e+00
1.055000000000000000e+03 3.519057526971127459e+01
1.056000000000000000e+03 4.195430639004274553e+01
1.057000000000000000e+03 1.813775269709700666e+01
1.058000000000000000e+03 8.842466883817451162e+00
1.059000000000000000e+03 1.057488283195000101e+01
1.060000000000000000e+03 4.363051012448539545e+00
1.061000000000000000e+03 9.643640639003992376e+00
1.062000000000000000e+03 1.535111041493773598e+01
1.063000000000000000e+03 9.446725979252942551e+00
1.064000000000000000e+03 7.750678136645417382e+00
1.065000000000000000e+03 3.978614709543349282e+00
1.066000000000000000e+03 5.336860495850984876e+00
1.067000000000000000e+03 1.477823102281815437e+01
1.068000000000000000e+03 1.516843773858986566e+01
1.069000000000000000e+03 1.649227568464921845e+01
1.070000000000000000e+03 3.416226298755305635e+01
1.071000000000000000e+03 7.171221991676176577e-01
1.072000000000000000e+03 4.268400861283638648e+01
1.073000000000000000e+03 3.279575570539387996e+01
1.074000000000000000e+03 3.571841925311067456e+01
1.075000000000000000e+03 6.088418365145214750e+01
1.076000000000000000e+03 3.433444714285450061e+01
1.077000000000000000e+03 1.848754680498220537e+01
1.078000000000000000e+03 2.735432659751229068e+01
1.079000000000000000e+03 2.068615093776097069e+01
1.080000000000000000e+03 6.738621107883891170e+01
1.081000000000000000e+03 5.066781628630818091e+01
1.082000000000000000e+03 3.823381394190868576e+01
1.083000000000000000e+03 4.786946390041585886e+01
1.084000000000000000e+03 6.651423394190692306e+01
1.085000000000000000e+03 6.975015414937769265e+01
1.086000000000000000e+03 5.892130846472988992e+01
1.087000000000000000e+03 5.708701439834077718e+01
1.088000000000000000e+03 6.692294585062168721e+01
1.089000000000000000e+03 7.608630786307065819e+01
1.090000000000000000e+03 8.034122836099595588e+01
1.091000000000000000e+03 8.651682881742594589e+01
1.092000000000000000e+03 1.018619363070539094e+02
1.093000000000000000e+03 8.571076254658311200e+01
1.094000000000000000e+03 8.778106240663875326e+01
1.095000000000000000e+03 6.295930697095597850e+01
1.096000000000000000e+03 6.971133344398378995e+01
1.097000000000000000e+03 7.976212290456408027e+01
1.098000000000000000e+03 9.108114460580706861e+01
1.099000000000000000e+03 9.837512738589246908e+01
1.100000000000000000e+03 8.413236385892413693e+01
1.101000000000000000e+03 1.263845906832290353e+02
1.102000000000000000e+03 1.045876104149385384e+02
1.103000000000000000e+03 8.948059705394216223e+01
1.104000000000000000e+03 1.128990659751056711e+02
1.105000000000000000e+03 1.029794027329211303e+02
1.106000000000000000e+03 7.465478881742726003e+01
1.107000000000000000e+03 7.047724894190962175e+01
1.108000000000000000e+03 7.194596813278052139e+01
1.109000000000000000e+03 7.534244265560077736e+01
1.110000000000000000e+03 8.116673539419019789e+01
1.111000000000000000e+03 4.618943190871200954e+01
1.112000000000000000e+03 8.751558286306892853e+01
1.113000000000000000e+03 1.056031763975155116e+02
1.114000000000000000e+03 1.163791365145223580e+02
1.115000000000000000e+03 9.661844441908920089e+01
1.116000000000000000e+03 8.288244541493793349e+01
1.117000000000000000e+03 7.036178180497873313e+01
1.118000000000000000e+03 1.018664165145232943e+02
1.119000000000000000e+03 9.300131941909336319e+01
1.120000000000000000e+03 1.679503439834030587e+01
1.121000000000000000e+03 4.193533531120415603e+01
1.122000000000000000e+03 3.670667790890242799e+01
1.123000000000000000e+03 6.928586983402456667e+01
1.124000000000000000e+03 4.742288251037186342e+01
1.125000000000000000e+03 2.298621149377551731e+01
1.126000000000000000e+03 3.105368598343717679e+01
1.127000000000000000e+03 8.573017937759518148e+00
1.128000000000000000e+03 8.046938639002357618e+00
1.129000000000000000e+03 1.377123161825564601e+01
1.130000000000000000e+03 3.116344619047605136e+01
1.131000000000000000e+03 4.621226846473153671e+01
1.132000000000000000e+03 6.141231757261413549e+01
1.133000000000000000e+03 5.396995678423343890e+01
1.134000000000000000e+03 1.612402341614834711e+01
1.135000000000000000e+03 5.288457298755658087e+01
1.136000000000000000e+03 6.466435970954388779e+01
1.137000000000000000e+03 5.354107780082993884e+01
1.138000000000000000e+03 2.434910149377374466e+01
1.139000000000000000e+03 3.137156524895958754e+01
1.140000000000000000e+03 4.198997724066504844e+01
1.141000000000000000e+03 2.008151985477229218e+01
1.142000000000000000e+03 2.918289202898470691e+01
1.143000000000000000e+03 1.288876178423226015e+01
1.144000000000000000e+03 2.602733730290480452e+01
1.145000000000000000e+03 4.970896850622448682e+01
1.146000000000000000e+03 3.360438419087374484e+01
1.147000000000000000e+03 1.993898744813280999e+01
1.148000000000000000e+03 4.752196470954564234e+01
1.149000000000000000e+03 5.274608018672350340e+01
1.150000000000000000e+03 5.780440184647174817e+01
1.151000000000000000e+03 7.132794254658386990e+01
1.152000000000000000e+03 7.240624439834213888e+01
1.153000000000000000e+03 8.624627286307166685e+01
1.154000000000000000e+03 7.270750751037365944e+01
1.155000000000000000e+03 6.393502161490651758e+01
1.156000000000000000e+03 5.705553614107974880e+01
1.157000000000000000e+03 4.856533871369273925e+01
1.158000000000000000e+03 7.475314995850662569e+01
1.159000000000000000e+03 6.127527157350021980e+01
1.160000000000000000e+03 3.854901746888032221e+01
1.161000000000000000e+03 2.620315095435693564e+01
1.162000000000000000e+03 2.265936875518719518e+01
1.163000000000000000e+03 2.241580809523861717e+01
1.164000000000000000e+03 2.142018921162440748e+00
1.165000000000000000e+03 1.564975180497939355e+01
1.166000000000000000e+03 2.276937510373472406e+01
1.167000000000000000e+03 2.293003612836387362e+01
1.168000000000000000e+03 3.471657435684655724e+01
1.169000000000000000e+03 3.936377336099575786e+01
1.170000000000000000e+03 3.578962684647375170e+01
1.171000000000000000e+03 1.478303840993845952e+01
1.172000000000000000e+03 4.762107012448550591e+01
1.173000000000000000e+03 7.321836477178500502e+01
1.174000000000000000e+03 5.515515736514412737e+01
1.175000000000000000e+03 6.390124497925310010e+01
1.176000000000000000e+03 5.156224253112061717e+01
1.177000000000000000e+03 6.588553630705419550e+01
1.178000000000000000e+03 2.848858165975173762e+01
1.179000000000000000e+03 7.990516925311308682e+01
1.180000000000000000e+03 8.926476780083389428e+01
1.181000000000000000e+03 3.202497912863267260e+01
1.182000000000000000e+03 1.809728014522854522e+01
1.183000000000000000e+03 3.577590879668183277e+01
1.184000000000000000e+03 6.588368018633182999e+01
1.185000000000000000e+03 7.905840037344415805e+01
1.186000000000000000e+03 6.487538809128653838e+01
1.187000000000000000e+03 6.162573518672259354e+01
1.188000000000000000e+03 4.622790602484443667e+01
1.189000000000000000e+03 7.309396943983428230e+01
1.190000000000000000e+03 3.850233080912427397e+01
1.191000000000000000e+03 1.555526143153343455e+01
1.192000000000000000e+03 1.524525950310571076e+01
1.193000000000000000e+03 5.959974103734514728e+01
1.194000000000000000e+03 4.931805672199315183e+01
1.195000000000000000e+03 6.906046165974922246e+01
1.196000000000000000e+03 7.567889120082874399e+01
1.197000000000000000e+03 7.413227587136823615e+01
1.198000000000000000e+03 4.958137396265952646e+01
1.199000000000000000e+03 1.100231899999999996e+01
1.200000000000000000e+03 1.847497380952156476e+01
1.201000000000000000e+03 2.580270713692620177e+01
1.202000000000000000e+03 4.366391037344371995e+01
1.203000000000000000e+03 5.100838634854790854e+01
1.204000000000000000e+03 4.964310521739141535e+01
1.205000000000000000e+03 7.663586506223914796e+01
1.206000000000000000e+03 4.717691039419015908e+01
1.207000000000000000e+03 9.686472966803830076e+00
1.208000000000000000e+03 4.472196068463603957e+00
1.209000000000000000e+03 2.860147468879639376e+01
1.210000000000000000e+03 3.548282439833731416e+01
1.211000000000000000e+03 1.490329885647489139e+00
1.212000000000000000e+03 4.265063423235563533e+00
1.213000000000000000e+03 2.931730498964868659e+01
1.214000000000000000e+03 6.118745313278179054e+01
1.215000000000000000e+03 5.799507852697161070e+01
1.216000000000000000e+03 5.070397508298772493e+01
1.217000000000000000e+03 7.805586314696707717e+00
1.218000000000000000e+03 1.716118383402213254e+01
1.219000000000000000e+03 3.470080614107851602e+01
1.220000000000000000e+03 4.099201141078852118e+01
1.221000000000000000e+03 4.791043800829925914e+01
1.222000000000000000e+03 5.182608964730300016e+01
1.223000000000000000e+03 5.653288394190869326e+01
1.224000000000000000e+03 6.465723995850538586e+01
1.225000000000000000e+03 5.222035571428581591e+01
1.226000000000000000e+03 5.405094066390065422e+01
1.227000000000000000e+03 2.985812149377488112e+01
1.228000000000000000e+03 7.282119568464545445e+00
1.229000000000000000e+03 4.661508159420047548e+01
1.230000000000000000e+03 8.549552292530258057e+00
1.231000000000000000e+03 4.016110735270310528e+01
1.232000000000000000e+03 4.286391381743010243e+01
1.233000000000000000e+03 3.745778141078820056e+01
1.234000000000000000e+03 5.225715095435683821e+01
1.235000000000000000e+03 4.520490572613956459e+01
1.236000000000000000e+03 3.485455842323602127e+01
1.237000000000000000e+03 4.068804887966803108e+01
1.238000000000000000e+03 3.952473524896331014e+01
1.239000000000000000e+03 5.383880139003959187e+01
1.240000000000000000e+03 7.220379751037370397e+01
1.241000000000000000e+03 2.657917968879500137e+01
1.242000000000000000e+03 3.954317689440889438e+01
1.243000000000000000e+03 3.462773203319582649e+01
1.244000000000000000e+03 3.497425385891368421e+00
1.245000000000000000e+03 2.914595406638739838e+00
1.246000000000000000e+03 4.410407246376482249e+01
1.247000000000000000e+03 5.393193300829881309e+01
1.248000000000000000e+03 3.575992759336109827e+01
1.249000000000000000e+03 3.754430659751051280e+01
1.250000000000000000e+03 3.937480917012447179e+01
1.251000000000000000e+03 4.122222058091337971e+01
1.252000000000000000e+03 4.997594261410655037e+01
1.253000000000000000e+03 2.683334319502154486e+01
1.254000000000000000e+03 3.367738217391310229e+01
1.255000000000000000e+03 5.846342132780236511e+01
1.256000000000000000e+03 6.562161473029050285e+01
1.257000000000000000e+03 4.303908010373548620e+01
1.258000000000000000e+03 3.857846832298172046e+01
1.259000000000000000e+03 5.537968182572873843e+01
1.260000000000000000e+03 2.854017919502296152e+01
1.261000000000000000e+03 2.315863352697119026e+01
1.262000000000000000e+03 3.299224921161349044e+01
1.263000000000000000e+03 4.126994510372154146e+00
1.264000000000000000e+03 2.925851199170064376e+01
1.265000000000000000e+03 5.178663549792533871e+01
1.266000000000000000e+03 4.806214823651453116e+01
1.267000000000000000e+03 5.082256937759317594e+01
1.268000000000000000e+03 5.486110431535281862e+01
1.269000000000000000e+03 6.310235033195040444e+01
1.270000000000000000e+03 4.019768124481595351e+01
1.271000000000000000e+03 2.787979550724639921e+01
1.272000000000000000e+03 3.508800497925379602e+01
1.273000000000000000e+03 6.194257819501721229e+01
1.274000000000000000e+03 3.258191498133072628e+01
1.275000000000000000e+03 9.038536448133832835e+00
1.276000000000000000e+03 3.045825182572632883e+01
1.277000000000000000e+03 2.828320327800915734e+01
1.278000000000000000e+03 1.343747144398365734e+01
1.279000000000000000e+03 1.039975152074963027e+01
1.280000000000000000e+03 4.188863020746831012e+01
1.281000000000000000e+03 3.144752900414945529e+01
1.282000000000000000e+03 3.704269871369294265e+01
1.283000000000000000e+03 9.235610946171545876e+00
1.284000000000000000e+03 3.267569157676100122e+00
1.285000000000000000e+03 2.494471224066400339e+01
1.286000000000000000e+03 5.548935975101548124e+00
1.287000000000000000e+03 4.494178425309872438e+00
1.288000000000000000e+03 2.027883875518664425e+01
1.289000000000000000e+03 8.907761921161327479e+00
1.290000000000000000e+03 1.562680701867462041e+01
1.291000000000000000e+03 4.354438323651556431e+01
1.292000000000000000e+03 1.724728441493719799e+01
1.293000000000000000e+03 5.187830672200338000e+00
1.294000000000000000e+03 3.372814887966447372e+01
1.295000000000000000e+03 6.211248369294581551e+01
1.296000000000000000e+03 4.888600670124399983e+01
1.297000000000000000e+03 4.075579537344479775e+01
1.298000000000000000e+03 3.420099885893634450e+00
1.299000000000000000e+03 3.844871597510423555e+01
1.300000000000000000e+03 2.250012378881628194e+01
1.301000000000000000e+03 2.276667912863095111e+01
1.302000000000000000e+03 0.000000000000000000e+00
1.303000000000000000e+03 0.000000000000000000e+00
1.304000000000000000e+03 0.000000000000000000e+00
1.305000000000000000e+03 0.000000000000000000e+00
1.306000000000000000e+03 0.000000000000000000e+00
1.307000000000000000e+03 0.000000000000000000e+00
1.308000000000000000e+03 0.000000000000000000e+00
1.309000000000000000e+03 0.000000000000000000e+00
1.310000000000000000e+03 0.000000000000000000e+00
1.311000000000000000e+03 0.000000000000000000e+00
1.312000000000000000e+03 0.000000000000000000e+00
1.313000000000000000e+03 0.000000000000000000e+00
1.314000000000000000e+03 0.000000000000000000e+00
1.315000000000000000e+03 0.000000000000000000e+00
1.316000000000000000e+03 0.000000000000000000e+00
1.317000000000000000e+03 0.000000000000000000e+00
1.318000000000000000e+03 0.000000000000000000e+00
1.319000000000000000e+03 0.000000000000000000e+00
1.320000000000000000e+03 0.000000000000000000e+00
1.321000000000000000e+03 0.000000000000000000e+00
1.322000000000000000e+03 0.000000000000000000e+00
1.323000000000000000e+03 0.000000000000000000e+00
1.324000000000000000e+03 0.000000000000000000e+00
1.325000000000000000e+03 0.000000000000000000e+00
1.326000000000000000e+03 0.000000000000000000e+00
1.327000000000000000e+03 0.000000000000000000e+00
1.328000000000000000e+03 0.000000000000000000e+00
1.329000000000000000e+03 0.000000000000000000e+00
1.330000000000000000e+03 0.000000000000000000e+00
1.331000000000000000e+03 0.000000000000000000e+00
1.332000000000000000e+03 0.000000000000000000e+00
1.333000000000000000e+03 0.000000000000000000e+00
1.334000000000000000e+03 0.000000000000000000e+00
1.335000000000000000e+03 0.000000000000000000e+00
1.336000000000000000e+03 0.000000000000000000e+00
1.337000000000000000e+03 0.000000000000000000e+00
1.338000000000000000e+03 0.000000000000000000e+00
1.339000000000000000e+03 0.000000000000000000e+00
1.340000000000000000e+03 0.000000000000000000e+00
1.341000000000000000e+03 0.000000000000000000e+00
1.342000000000000000e+03 0.000000000000000000e+00
1.343000000000000000e+03 0.000000000000000000e+00
1.344000000000000000e+03 0.000000000000000000e+00
1.345000000000000000e+03 0.000000000000000000e+00
1.346000000000000000e+03 0.000000000000000000e+00
1.347000000000000000e+03 0.000000000000000000e+00
1.348000000000000000e+03 0.000000000000000000e+00
1.349000000000000000e+03 0.000000000000000000e+00
1.350000000000000000e+03 0.000000000000000000e+00
1.351000000000000000e+03 0.000000000000000000e+00
1.352000000000000000e+03 0.000000000000000000e+00
1.353000000000000000e+03 0.000000000000000000e+00
1.354000000000000000e+03 0.000000000000000000e+00
1.355000000000000000e+03 0.000000000000000000e+00
1.356000000000000000e+03 0.000000000000000000e+00
1.357000000000000000e+03 0.000000000000000000e+00
1.358000000000000000e+03 0.000000000000000000e+00
1.359000000000000000e+03 0.000000000000000000e+00
1.360000000000000000e+03 0.000000000000000000e+00
1.361000000000000000e+03 0.000000000000000000e+00
1.362000000000000000e+03 0.000000000000000000e+00
1.363000000000000000e+03 0.000000000000000000e+00
1.364000000000000000e+03 0.000000000000000000e+00
1.365000000000000000e+03 0.000000000000000000e+00
1.366000000000000000e+03 0.000000000000000000e+00
1.367000000000000000e+03 0.000000000000000000e+00
1.368000000000000000e+03 0.000000000000000000e+00
1.369000000000000000e+03 0.000000000000000000e+00
1.370000000000000000e+03 0.000000000000000000e+00
1.371000000000000000e+03 0.000000000000000000e+00
1.372000000000000000e+03 0.000000000000000000e+00
1.373000000000000000e+03 0.000000000000000000e+00
1.374000000000000000e+03 0.000000000000000000e+00
1.375000000000000000e+03 0.000000000000000000e+00
1.376000000000000000e+03 0.000000000000000000e+00
1.377000000000000000e+03 0.000000000000000000e+00
1.378000000000000000e+03 0.000000000000000000e+00
1.379000000000000000e+03 0.000000000000000000e+00
1.380000000000000000e+03 0.000000000000000000e+00
1.381000000000000000e+03 0.000000000000000000e+00
1.382000000000000000e+03 0.000000000000000000e+00
1.383000000000000000e+03 0.000000000000000000e+00
1.384000000000000000e+03 0.000000000000000000e+00
1.385000000000000000e+03 0.000000000000000000e+00
1.386000000000000000e+03 0.000000000000000000e+00
1.387000000000000000e+03 0.000000000000000000e+00
1.388000000000000000e+03 0.000000000000000000e+00
1.389000000000000000e+03 0.000000000000000000e+00
1.390000000000000000e+03 0.000000000000000000e+00
1.391000000000000000e+03 0.000000000000000000e+00
1.392000000000000000e+03 0.000000000000000000e+00
1.393000000000000000e+03 0.000000000000000000e+00
1.394000000000000000e+03 0.000000000000000000e+00
1.395000000000000000e+03 0.000000000000000000e+00
1.396000000000000000e+03 0.000000000000000000e+00
1.397000000000000000e+03 0.000000000000000000e+00
1.398000000000000000e+03 0.000000000000000000e+00
1.399000000000000000e+03 0.000000000000000000e+00
1.400000000000000000e+03 0.000000000000000000e+00
1.401000000000000000e+03 0.000000000000000000e+00
1.402000000000000000e+03 0.000000000000000000e+00
1.403000000000000000e+03 0.000000000000000000e+00
1.404000000000000000e+03 0.000000000000000000e+00
1.405000000000000000e+03 0.000000000000000000e+00
1.406000000000000000e+03 0.000000000000000000e+00
1.407000000000000000e+03 0.000000000000000000e+00
1.408000000000000000e+03 0.000000000000000000e+00
1.409000000000000000e+03 0.000000000000000000e+00
1.410000000000000000e+03 0.000000000000000000e+00
1.411000000000000000e+03 0.000000000000000000e+00
1.412000000000000000e+03 0.000000000000000000e+00
1.413000000000000000e+03 0.000000000000000000e+00
1.414000000000000000e+03 0.000000000000000000e+00
1.415000000000000000e+03 0.000000000000000000e+00
1.416000000000000000e+03 0.000000000000000000e+00
1.417000000000000000e+03 0.000000000000000000e+00
1.418000000000000000e+03 0.000000000000000000e+00
1.419000000000000000e+03 0.000000000000000000e+00
1.420000000000000000e+03 0.000000000000000000e+00
1.421000000000000000e+03 0.000000000000000000e+00
1.422000000000000000e+03 0.000000000000000000e+00
1.423000000000000000e+03 0.000000000000000000e+00
1.424000000000000000e+03 0.000000000000000000e+00
1.425000000000000000e+03 0.000000000000000000e+00
1.426000000000000000e+03 0.000000000000000000e+00
1.427000000000000000e+03 0.000000000000000000e+00
1.428000000000000000e+03 0.000000000000000000e+00
1.429000000000000000e+03 0.000000000000000000e+00
1.430000000000000000e+03 0.000000000000000000e+00
1.431000000000000000e+03 0.000000000000000000e+00
1.432000000000000000e+03 0.000000000000000000e+00
1.433000000000000000e+03 0.000000000000000000e+00
1.434000000000000000e+03 0.000000000000000000e+00
1.435000000000000000e+03 0.000000000000000000e+00
1.436000000000000000e+03 0.000000000000000000e+00
1.437000000000000000e+03 0.000000000000000000e+00
1.438000000000000000e+03 0.000000000000000000e+00
1.439000000000000000e+03 0.000000000000000000e+00
1.440000000000000000e+03 0.000000000000000000e+00
1.441000000000000000e+03 0.000000000000000000e+00
1.442000000000000000e+03 0.000000000000000000e+00
1.443000000000000000e+03 0.000000000000000000e+00
1.444000000000000000e+03 0.000000000000000000e+00
1.445000000000000000e+03 0.000000000000000000e+00
1.446000000000000000e+03 0.000000000000000000e+00
1.447000000000000000e+03 0.000000000000000000e+00
1.448000000000000000e+03 0.000000000000000000e+00
1.449000000000000000e+03 0.000000000000000000e+00
1.450000000000000000e+03 0.000000000000000000e+00
1.451000000000000000e+03 0.000000000000000000e+00
1.452000000000000000e+03 0.000000000000000000e+00
1.453000000000000000e+03 0.000000000000000000e+00
1.454000000000000000e+03 0.000000000000000000e+00
1.455000000000000000e+03 0.000000000000000000e+00
1.456000000000000000e+03 0.000000000000000000e+00
1.457000000000000000e+03 0.000000000000000000e+00
1.458000000000000000e+03 0.000000000000000000e+00
1.459000000000000000e+03 0.000000000000000000e+00
1.460000000000000000e+03 0.000000000000000000e+00
1.461000000000000000e+03 0.000000000000000000e+00
1.462000000000000000e+03 0.000000000000000000e+00
1.463000000000000000e+03 0.000000000000000000e+00
1.464000000000000000e+03 0.000000000000000000e+00
1.465000000000000000e+03 0.000000000000000000e+00
1.466000000000000000e+03 0.000000000000000000e+00
1.467000000000000000e+03 0.000000000000000000e+00
1.468000000000000000e+03 0.000000000000000000e+00
1.469000000000000000e+03 0.000000000000000000e+00
1.470000000000000000e+03 0.000000000000000000e+00
1.471000000000000000e+03 0.000000000000000000e+00
1.472000000000000000e+03 0.000000000000000000e+00
1.473000000000000000e+03 0.000000000000000000e+00
1.474000000000000000e+03 0.000000000000000000e+00
1.475000000000000000e+03 0.000000000000000000e+00
1.476000000000000000e+03 0.000000000000000000e+00
1.477000000000000000e+03 0.000000000000000000e+00
1.478000000000000000e+03 0.000000000000000000e+00
1.479000000000000000e+03 0.000000000000000000e+00
1.480000000000000000e+03 0.000000000000000000e+00
1.481000000000000000e+03 0.000000000000000000e+00
1.482000000000000000e+03 0.000000000000000000e+00
1.483000000000000000e+03 0.000000000000000000e+00
1.484000000000000000e+03 0.000000000000000000e+00
1.485000000000000000e+03 0.000000000000000000e+00
1.486000000000000000e+03 0.000000000000000000e+00
1.487000000000000000e+03 0.000000000000000000e+00
1.488000000000000000e+03 0.000000000000000000e+00
1.489000000000000000e+03 0.000000000000000000e+00
1.490000000000000000e+03 0.000000000000000000e+00
1.491000000000000000e+03 0.000000000000000000e+00
1.492000000000000000e+03 0.000000000000000000e+00
1.493000000000000000e+03 0.000000000000000000e+00
1.494000000000000000e+03 0.000000000000000000e+00
1.495000000000000000e+03 0.000000000000000000e+00
1.496000000000000000e+03 0.000000000000000000e+00
1.497000000000000000e+03 0.000000000000000000e+00
1.498000000000000000e+03 0.000000000000000000e+00
1.499000000000000000e+03 0.000000000000000000e+00
1.500000000000000000e+03 0.000000000000000000e+00
