1.010000000000000000e+02 0.000000000000000000e+00
1.020000000000000000e+02 0.000000000000000000e+00
1.030000000000000000e+02 0.000000000000000000e+00
1.040000000000000000e+02 0.000000000000000000e+00
1.050000000000000000e+02 0.000000000000000000e+00
1.060000000000000000e+02 0.000000000000000000e+00
1.070000000000000000e+02 0.000000000000000000e+00
1.080000000000000000e+02 0.000000000000000000e+00
1.090000000000000000e+02 0.000000000000000000e+00
1.100000000000000000e+02 0.000000000000000000e+00
1.110000000000000000e+02 0.000000000000000000e+00
1.120000000000000000e+02 0.000000000000000000e+00
1.130000000000000000e+02 0.000000000000000000e+00
1.140000000000000000e+02 0.000000000000000000e+00
1.150000000000000000e+02 0.000000000000000000e+00
1.160000000000000000e+02 0.000000000000000000e+00
1.170000000000000000e+02 0.000000000000000000e+00
1.180000000000000000e+02 0.000000000000000000e+00
1.190000000000000000e+02 0.000000000000000000e+00
1.200000000000000000e+02 0.000000000000000000e+00
1.210000000000000000e+02 0.000000000000000000e+00
1.220000000000000000e+02 0.000000000000000000e+00
1.230000000000000000e+02 0.000000000000000000e+00
1.240000000000000000e+02 0.000000000000000000e+00
1.250000000000000000e+02 0.000000000000000000e+00
1.260000000000000000e+02 0.000000000000000000e+00
1.270000000000000000e+02 0.000000000000000000e+00
1.280000000000000000e+02 0.000000000000000000e+00
1.290000000000000000e+02 0.000000000000000000e+00
1.300000000000000000e+02 0.000000000000000000e+00
1.310000000000000000e+02 0.000000000000000000e+00
1.320000000000000000e+02 0.000000000000000000e+00
1.330000000000000000e+02 0.000000000000000000e+00
1.340000000000000000e+02 0.000000000000000000e+00
1.350000000000000000e+02 0.000000000000000000e+00
1.360000000000000000e+02 7.610637378132772968e-02
1.370000000000000000e+02 2.141119807093746719e+00
1.380000000000000000e+02 4.262325131922856514e+01
1.390000000000000000e+02 5.205514197884256333e+01
1.400000000000000000e+02 3.822241198713957999e+01
1.410000000000000000e+02 4.504952773490975204e+01
1.420000000000000000e+02 5.090478782825147164e+01
1.430000000000000000e+02 6.461482443061612457e+01
1.440000000000000000e+02 7.893502751918683202e+01
1.450000000000000000e+02 8.107763531010171221e+01
1.460000000000000000e+02 5.801422297448639398e+01
1.470000000000000000e+02 6.902891488487875904e+01
1.480000000000000000e+02 9.009300508400743013e+01
1.490000000000000000e+02 9.359716415059119754e+01
1.500000000000000000e+02 5.284069816842976053e+01
1.510000000000000000e+02 8.123221674548865678e+01
1.520000000000000000e+02 7.098175986105349011e+01
1.530000000000000000e+02 3.735374516282910662e+01
1.540000000000000000e+02 6.510213633893376084e+01
1.550000000000000000e+02 8.529504776441318370e+01
1.560000000000000000e+02 7.204253490976972785e+01
1.570000000000000000e+02 4.806176326488288453e+01
1.580000000000000000e+02 4.702480464330162846e+01
1.590000000000000000e+02 9.710765912673765854e+01
1.600000000000000000e+02 9.637644345986298333e+01
1.610000000000000000e+02 8.972884473553199314e+01
1.620000000000000000e+02 1.120301648413190065e+02
1.630000000000000000e+02 1.276141590626296960e+02
1.640000000000000000e+02 1.306263263638249157e+02
1.650000000000000000e+02 1.182174092719353098e+02
1.660000000000000000e+02 1.080968868519284740e+02
1.670000000000000000e+02 1.270779549056211408e+02
1.680000000000000000e+02 9.329216633478499432e+01
1.690000000000000000e+02 8.385814498548320728e+01
1.700000000000000000e+02 9.175309121966408554e+01
1.710000000000000000e+02 7.498650693009756196e+01
1.720000000000000000e+02 9.131411237038591366e+01
1.730000000000000000e+02 9.160195018460898098e+01
1.740000000000000000e+02 8.471614189794648553e+01
1.750000000000000000e+02 8.820685967233509928e+01
1.760000000000000000e+02 8.360847123833224259e+01
1.770000000000000000e+02 7.979239212404064574e+01
1.780000000000000000e+02 8.262655374818498899e+01
1.790000000000000000e+02 9.675864018668298172e+01
1.800000000000000000e+02 1.220331506533914308e+02
1.810000000000000000e+02 9.915376772868683020e+01
1.820000000000000000e+02 9.436069872847954798e+01
1.830000000000000000e+02 1.143453861854386560e+02
1.840000000000000000e+02 1.206668056627256078e+02
1.850000000000000000e+02 1.401606945861855991e+02
1.860000000000000000e+02 1.186401241858534377e+02
1.870000000000000000e+02 9.147215558390381318e+01
1.880000000000000000e+02 9.856457293092714167e+01
1.890000000000000000e+02 9.304603133969300188e+01
1.900000000000000000e+02 7.728473289566477433e+01
1.910000000000000000e+02 8.031092777224633039e+01
1.920000000000000000e+02 9.636585510475023852e+01
1.930000000000000000e+02 7.337492835096431065e+01
1.940000000000000000e+02 6.096910549263635914e+01
1.950000000000000000e+02 6.164981891308855211e+01
1.960000000000000000e+02 6.344123141671857269e+01
1.970000000000000000e+02 5.626469016179215288e+01
1.980000000000000000e+02 5.630682768512756553e+01
1.990000000000000000e+02 4.552806583696327891e+01
2.000000000000000000e+02 3.932298921385602597e+01
2.010000000000000000e+02 4.853242732628091716e+01
2.020000000000000000e+02 4.613290925326693070e+01
2.030000000000000000e+02 6.135824329323935444e+01
2.040000000000000000e+02 5.936280942128205140e+01
2.050000000000000000e+02 4.581382050404451434e+01
2.060000000000000000e+02 7.447458190377456333e+01
2.070000000000000000e+02 7.923733452395767074e+01
2.080000000000000000e+02 7.402358150591165042e+01
2.090000000000000000e+02 6.008940275404421527e+01
2.100000000000000000e+02 3.724141564820563133e+01
2.110000000000000000e+02 4.146542066583699437e+01
2.120000000000000000e+02 2.774039368311907339e+01
2.130000000000000000e+02 1.992528011408415267e+01
2.140000000000000000e+02 4.465551655465628045e+01
2.150000000000000000e+02 8.697917612816283395e+01
2.160000000000000000e+02 8.768906634723084892e+01
2.170000000000000000e+02 9.802576194150574906e+01
2.180000000000000000e+02 1.375274697365686052e+02
2.190000000000000000e+02 1.915260783862273968e+02
2.200000000000000000e+02 2.377667299460805737e+02
2.210000000000000000e+02 2.716932354698193990e+02
2.220000000000000000e+02 3.057120395561082660e+02
2.230000000000000000e+02 3.543779668394863052e+02
2.240000000000000000e+02 4.143518224019916261e+02
2.250000000000000000e+02 5.246022362787800830e+02
2.260000000000000000e+02 6.973356595603464712e+02
2.270000000000000000e+02 8.927588457996278066e+02
2.280000000000000000e+02 1.042374546567102698e+03
2.290000000000000000e+02 8.195783562422235491e+02
2.300000000000000000e+02 4.591203673304316908e+02
2.310000000000000000e+02 1.950903105579760108e+02
2.320000000000000000e+02 1.534767607965150376e+02
2.330000000000000000e+02 1.282078628500310913e+02
2.340000000000000000e+02 1.007904569383946125e+02
2.350000000000000000e+02 9.142341246421899825e+01
2.360000000000000000e+02 1.022103806056834827e+02
2.370000000000000000e+02 9.837729588881971665e+01
2.380000000000000000e+02 8.767862934660860219e+01
2.390000000000000000e+02 1.213353672744237031e+02
2.400000000000000000e+02 1.592469735532047821e+02
2.410000000000000000e+02 1.445488630367143230e+02
2.420000000000000000e+02 1.515855437046255929e+02
2.430000000000000000e+02 1.822085038581204799e+02
2.440000000000000000e+02 2.058740814561294883e+02
2.450000000000000000e+02 1.966010647376058955e+02
2.460000000000000000e+02 1.398034224180836702e+02
2.470000000000000000e+02 8.098656953744060161e+01
2.480000000000000000e+02 7.310861733042898436e+01
2.490000000000000000e+02 7.662972224388177267e+01
2.500000000000000000e+02 3.234037234183772114e+01
2.510000000000000000e+02 2.603073650487450053e+01
2.520000000000000000e+02 2.565101841111804859e+01
2.530000000000000000e+02 3.230263323584336632e+01
2.540000000000000000e+02 3.622235358431855445e+01
2.550000000000000000e+02 3.618882660236536708e+00
2.560000000000000000e+02 3.934177818709823082e+00
2.570000000000000000e+02 1.304987807133964850e+01
2.580000000000000000e+02 1.577894059738644295e+01
2.590000000000000000e+02 1.615182968056419810e+01
2.600000000000000000e+02 1.217246180008295298e+01
2.610000000000000000e+02 8.654678183156992333e+00
2.620000000000000000e+02 9.752784232731855241e+00
2.630000000000000000e+02 1.275871429282451608e+01
2.640000000000000000e+02 7.989143709188917697e+00
2.650000000000000000e+02 1.215681188550105318e+01
2.660000000000000000e+02 1.126541382559112314e+01
2.670000000000000000e+02 2.434580398257537226e+01
2.680000000000000000e+02 5.159670733042921853e+01
2.690000000000000000e+02 3.434492958523386363e+01
2.700000000000000000e+02 2.361297953744131561e+01
2.710000000000000000e+02 6.282341769757505467e+00
2.720000000000000000e+02 2.263005594275011856e-01
2.730000000000000000e+02 2.069129347853036816e+00
2.740000000000000000e+02 2.215717663970112739e+01
2.750000000000000000e+02 1.838073758348874520e+01
2.760000000000000000e+02 3.242147624766645642e+00
2.770000000000000000e+02 2.550280279610058987e+00
2.780000000000000000e+02 1.648946471478965492e+01
2.790000000000000000e+02 1.089575538207823513e+01
2.800000000000000000e+02 3.558280261356569163e+00
2.810000000000000000e+02 3.728694902924625687e+00
2.820000000000000000e+02 3.690875683883121816e+00
2.830000000000000000e+02 3.696549729724085687e+00
2.840000000000000000e+02 1.972199370255078321e+01
2.850000000000000000e+02 2.244913842563660467e+01
2.860000000000000000e+02 1.744473048112852709e+01
2.870000000000000000e+02 3.334042468574968154e+01
2.880000000000000000e+02 4.284508678904771983e+01
2.890000000000000000e+02 5.115302842181653631e+01
2.900000000000000000e+02 6.867567288736753994e+01
2.910000000000000000e+02 9.388435673719143892e+01
2.920000000000000000e+02 7.484230233513071084e+01
2.930000000000000000e+02 1.127213140178387363e+02
2.940000000000000000e+02 1.607883393901679199e+02
2.950000000000000000e+02 1.932613070717550272e+02
2.960000000000000000e+02 2.680296792989014421e+02
2.970000000000000000e+02 2.971064762339273670e+02
2.980000000000000000e+02 3.680440968471298220e+02
2.990000000000000000e+02 4.635783799626647124e+02
3.000000000000000000e+02 5.443045182949574610e+02
3.010000000000000000e+02 6.745447226094136113e+02
3.020000000000000000e+02 8.286024917029645849e+02
3.030000000000000000e+02 1.015818638726403265e+03
3.040000000000000000e+02 1.226286701306779378e+03
3.050000000000000000e+02 1.382107361543247634e+03
3.060000000000000000e+02 1.238504491184401786e+03
3.070000000000000000e+02 9.019586360713568638e+02
3.080000000000000000e+02 5.813311616677069651e+02
3.090000000000000000e+02 3.840802081518344266e+02
3.100000000000000000e+02 2.770709604231485059e+02
3.110000000000000000e+02 2.231233896930735341e+02
3.120000000000000000e+02 1.707991751503828084e+02
3.130000000000000000e+02 1.263778667703793559e+02
3.140000000000000000e+02 1.136416794276233873e+02
3.150000000000000000e+02 1.203301071147067489e+02
3.160000000000000000e+02 1.278294890479155441e+02
3.170000000000000000e+02 1.508080881999170231e+02
3.180000000000000000e+02 1.633356205351593928e+02
3.190000000000000000e+02 1.273846153495124014e+02
3.200000000000000000e+02 1.374358387391124268e+02
3.210000000000000000e+02 1.657587511512130050e+02
3.220000000000000000e+02 1.777647894212820461e+02
3.230000000000000000e+02 1.865662684778099560e+02
3.240000000000000000e+02 2.727054230657535641e+02
3.250000000000000000e+02 3.142662764156809772e+02
3.260000000000000000e+02 3.654895590748812992e+02
3.270000000000000000e+02 4.313736996888615067e+02
3.280000000000000000e+02 5.026665175897115319e+02
3.290000000000000000e+02 5.634839834474183817e+02
3.300000000000000000e+02 6.238381475627468262e+02
3.310000000000000000e+02 5.972914095208454910e+02
3.320000000000000000e+02 5.059460751088969914e+02
3.330000000000000000e+02 4.604332705040438327e+02
3.340000000000000000e+02 3.954599389960579856e+02
3.350000000000000000e+02 3.758715703173613747e+02
3.360000000000000000e+02 3.719069728686998246e+02
3.370000000000000000e+02 3.764797049782208660e+02
3.380000000000000000e+02 4.485513360298683665e+02
3.390000000000000000e+02 5.140099149554025644e+02
3.400000000000000000e+02 5.500862554541682812e+02
3.410000000000000000e+02 5.325999960796518735e+02
3.420000000000000000e+02 4.502841326073440200e+02
3.430000000000000000e+02 3.347660131065954374e+02
3.440000000000000000e+02 2.357754467745277793e+02
3.450000000000000000e+02 1.622708855631612437e+02
3.460000000000000000e+02 1.066034414869344289e+02
3.470000000000000000e+02 7.127707466085864496e+01
3.480000000000000000e+02 9.350796618958737838e+01
3.490000000000000000e+02 4.203746604728139147e+01
3.500000000000000000e+02 8.878761558805177145e+00
3.510000000000000000e+02 3.720346135034279911e+01
3.520000000000000000e+02 6.720438061190684209e+01
3.530000000000000000e+02 2.845927003733714145e+01
3.540000000000000000e+02 2.502689607965206164e+01
3.550000000000000000e+02 4.429954122588656418e+01
3.560000000000000000e+02 5.127711601327536073e+01
3.570000000000000000e+02 4.056524412570038862e+01
3.580000000000000000e+02 2.550042496162629035e+01
3.590000000000000000e+02 1.136346018419379789e+01
3.600000000000000000e+02 2.217675830740509113e+01
3.610000000000000000e+02 6.719656976768310130e+01
3.620000000000000000e+02 1.731729082140638809e+01
3.630000000000000000e+02 4.842487591371186539e+01
3.640000000000000000e+02 6.692606020535150435e+01
3.650000000000000000e+02 6.628085895064300814e+01
3.660000000000000000e+02 7.561078195395052148e+01
3.670000000000000000e+02 4.618377265919930608e+01
3.680000000000000000e+02 8.873624313770261551e+01
3.690000000000000000e+02 9.289907958929781273e+01
3.700000000000000000e+02 8.128037674548707514e+01
3.710000000000000000e+02 1.293583730402325500e+02
3.720000000000000000e+02 1.279188643020120111e+02
3.730000000000000000e+02 1.563853096453010210e+02
3.740000000000000000e+02 1.932070270634589519e+02
3.750000000000000000e+02 2.039122700477079491e+02
3.760000000000000000e+02 1.794163053308444660e+02
3.770000000000000000e+02 1.584855989216090961e+02
3.780000000000000000e+02 9.263859080896034470e+01
3.790000000000000000e+02 3.178771248496163082e+01
3.800000000000000000e+02 1.737037781165781425e+01
3.810000000000000000e+02 3.504066760215690124e+01
3.820000000000000000e+02 7.088446943373094555e+00
3.830000000000000000e+02 2.764059182327323327e+01
3.840000000000000000e+02 1.375579922381307796e+01
3.850000000000000000e+02 4.173542677660228151e+01
3.860000000000000000e+02 1.652309515660703809e+01
3.870000000000000000e+02 2.590981151835814345e+00
3.880000000000000000e+02 1.853962054553067418e+01
3.890000000000000000e+02 3.645973167807499493e+01
3.900000000000000000e+02 4.387386633063660213e+01
3.910000000000000000e+02 5.919916458618521204e+01
3.920000000000000000e+02 3.377638685127574547e+01
3.930000000000000000e+02 5.598351606305840278e+00
3.940000000000000000e+02 1.272428688593901569e+01
3.950000000000000000e+02 4.743013289151628697e+01
3.960000000000000000e+02 3.881855405102674439e+01
3.970000000000000000e+02 2.091185596433006566e+01
3.980000000000000000e+02 5.737898903961652586e+00
3.990000000000000000e+02 4.603456616677176427e+00
4.000000000000000000e+02 1.618111754873506669e+01
4.010000000000000000e+02 1.299582706285008449e+01
4.020000000000000000e+02 3.454259784692026614e+01
4.030000000000000000e+02 6.102687293654048517e+01
4.040000000000000000e+02 6.973412497614604888e+01
4.050000000000000000e+02 5.529415694461695097e+01
4.060000000000000000e+02 4.505053499066601574e+01
4.070000000000000000e+02 2.418079892553410559e+01
4.080000000000000000e+02 5.271943779506177918e+01
4.090000000000000000e+02 1.051718562746317787e+02
4.100000000000000000e+02 1.182076698195395323e+02
4.110000000000000000e+02 1.145963933831154264e+02
4.120000000000000000e+02 1.411167665007262428e+02
4.130000000000000000e+02 1.650920892760838115e+02
4.140000000000000000e+02 1.830782258245176308e+02
4.150000000000000000e+02 2.131624134411952696e+02
4.160000000000000000e+02 2.422982735117197990e+02
4.170000000000000000e+02 2.318503650694875660e+02
4.180000000000000000e+02 2.500851347230875490e+02
4.190000000000000000e+02 3.045747545737409041e+02
4.200000000000000000e+02 3.510849532047291746e+02
4.210000000000000000e+02 3.593642687824096242e+02
4.220000000000000000e+02 4.102449937785160614e+02
4.230000000000000000e+02 4.137071732628090217e+02
4.240000000000000000e+02 3.727446378344746449e+02
4.250000000000000000e+02 3.489392641227707941e+02
4.260000000000000000e+02 3.370639800871188640e+02
4.270000000000000000e+02 2.972343539514626514e+02
4.280000000000000000e+02 2.792135506843633834e+02
4.290000000000000000e+02 3.026953339763537087e+02
4.300000000000000000e+02 3.451637615017631902e+02
4.310000000000000000e+02 3.655149213189551460e+02
4.320000000000000000e+02 3.935449881352421357e+02
4.330000000000000000e+02 4.518804904791545596e+02
4.340000000000000000e+02 5.215789492843797461e+02
4.350000000000000000e+02 5.680244612943378115e+02
4.360000000000000000e+02 5.811058225471895184e+02
4.370000000000000000e+02 5.850693370047707731e+02
4.380000000000000000e+02 5.945070012445547718e+02
4.390000000000000000e+02 5.967259415681394330e+02
4.400000000000000000e+02 5.703261487035888422e+02
4.410000000000000000e+02 5.183588107239171450e+02
4.420000000000000000e+02 4.364023634723104124e+02
4.430000000000000000e+02 3.430962669570628805e+02
4.440000000000000000e+02 2.727328340593240910e+02
4.450000000000000000e+02 2.343473404065550767e+02
4.460000000000000000e+02 1.799811413399707192e+02
4.470000000000000000e+02 1.603619950217796486e+02
4.480000000000000000e+02 1.264980102447116366e+02
4.490000000000000000e+02 8.940596270068409979e+01
4.500000000000000000e+02 7.710472622692398659e+01
4.510000000000000000e+02 9.083816669017001288e+01
4.520000000000000000e+02 8.421902510267541686e+01
4.530000000000000000e+02 6.827469764364204252e+01
4.540000000000000000e+02 5.295008761717136281e+01
4.550000000000000000e+02 4.314271134826810083e+01
4.560000000000000000e+02 4.201697013690112215e+01
4.570000000000000000e+02 3.305990156781422229e+01
4.580000000000000000e+02 3.157803392449695679e+01
4.590000000000000000e+02 3.231088821613777640e+01
4.600000000000000000e+02 4.374703642190419828e+01
4.610000000000000000e+02 8.331655877411343170e+01
4.620000000000000000e+02 2.944599207757780590e+01
4.630000000000000000e+02 1.351080512756704977e+01
4.640000000000000000e+02 2.963241557353251920e+01
4.650000000000000000e+02 2.858530530802743641e+01
4.660000000000000000e+02 2.788616410080768215e+00
4.670000000000000000e+02 3.428653418170549116e+01
4.680000000000000000e+02 5.259775107446591846e+01
4.690000000000000000e+02 4.050835731590922251e+01
4.700000000000000000e+02 3.265678322339789474e+01
4.710000000000000000e+02 6.227963897946503380e+01
4.720000000000000000e+02 2.334312698195494207e+01
4.730000000000000000e+02 4.157947981746466581e+01
4.740000000000000000e+02 4.399847795105692683e+01
4.750000000000000000e+02 2.208372385189789355e+01
4.760000000000000000e+02 2.781489639493873156e+01
4.770000000000000000e+02 2.749563547490683746e+01
4.780000000000000000e+02 9.454465734909867081e+00
4.790000000000000000e+02 1.526825607965130871e+01
4.800000000000000000e+02 1.643484839070928416e+01
4.810000000000000000e+02 1.651730648703603421e+01
4.820000000000000000e+02 4.027062904396535004e+01
4.830000000000000000e+02 1.386210463306299623e+01
4.840000000000000000e+02 1.365864940100228075e+00
4.850000000000000000e+02 1.143063601741988577e+01
4.860000000000000000e+02 2.737933939639124503e+01
4.870000000000000000e+02 5.008350939431601745e+01
4.880000000000000000e+02 9.970741732835845639e+00
4.890000000000000000e+02 2.117621590541305210e+01
4.900000000000000000e+02 2.760150511097408810e+01
4.910000000000000000e+02 2.369346080481148586e+00
4.920000000000000000e+02 1.689417683883022647e+01
4.930000000000000000e+02 1.309215314436789157e+01
4.940000000000000000e+02 1.107016159925327692e+01
4.950000000000000000e+02 8.445840314457630171e+00
4.960000000000000000e+02 1.515165215308046953e+01
4.970000000000000000e+02 1.609149422920573613e+01
4.980000000000000000e+02 1.820423534225285422e+01
4.990000000000000000e+02 1.030498169674348929e+00
5.000000000000000000e+02 4.696964516905227427e+00
5.010000000000000000e+02 1.592192378552195109e+01
5.020000000000000000e+02 2.720985157196179927e+01
5.030000000000000000e+02 9.814373036092275626e+00
5.040000000000000000e+02 8.779883876581545010e+00
5.050000000000000000e+02 9.382529685400392339e+00
5.060000000000000000e+02 3.522996611906204123e+01
5.070000000000000000e+02 3.588421192283816197e+01
5.080000000000000000e+02 7.274828493985875610e+00
5.090000000000000000e+02 1.466426931549466595e+01
5.100000000000000000e+02 1.054450320493687876e+01
5.110000000000000000e+02 9.997322739734544328e+00
5.120000000000000000e+02 4.275298479152779052e+00
5.130000000000000000e+02 2.512119701783391790e+01
5.140000000000000000e+02 1.565478873055422149e+01
5.150000000000000000e+02 9.791695338104092983e+00
5.160000000000000000e+02 1.445964178178784110e+01
5.170000000000000000e+02 2.162439428749222259e+01
5.180000000000000000e+02 2.801240228168385826e+01
5.190000000000000000e+02 5.208158190624356365e+01
5.200000000000000000e+02 5.298479912258866875e+01
5.210000000000000000e+02 7.221990189172372254e+01
5.220000000000000000e+02 7.054487799626535605e+01
5.230000000000000000e+02 3.059593318191187450e+01
5.240000000000000000e+02 2.832990992947528142e+01
5.250000000000000000e+02 3.479848931549506119e+01
5.260000000000000000e+02 4.501594459863148501e+01
5.270000000000000000e+02 6.376361899212044904e+01
5.280000000000000000e+02 8.546650925119207898e+01
5.290000000000000000e+02 9.362215827629097475e+01
5.300000000000000000e+02 8.405215421401854314e+01
5.310000000000000000e+02 6.918651359676432833e+01
5.320000000000000000e+02 8.686866202862367459e+01
5.330000000000000000e+02 1.118439489216093534e+02
5.340000000000000000e+02 1.150957652354282601e+02
5.350000000000000000e+02 1.445866855009332426e+02
5.360000000000000000e+02 1.714233119037746746e+02
5.370000000000000000e+02 2.136793671022618639e+02
5.380000000000000000e+02 2.633408487035892449e+02
5.390000000000000000e+02 3.126227925549583233e+02
5.400000000000000000e+02 3.653152878033626507e+02
5.410000000000000000e+02 4.263313439742805713e+02
5.420000000000000000e+02 4.682968731590975722e+02
5.430000000000000000e+02 5.358610589089431642e+02
5.440000000000000000e+02 6.096669075295592393e+02
5.450000000000000000e+02 6.298424214063476256e+02
5.460000000000000000e+02 5.955570333540779302e+02
5.470000000000000000e+02 5.028122166355506124e+02
5.480000000000000000e+02 4.027435143538694433e+02
5.490000000000000000e+02 3.040886627878045374e+02
5.500000000000000000e+02 2.124067700062237520e+02
5.510000000000000000e+02 1.542169586185433445e+02
5.520000000000000000e+02 1.315088799211780497e+02
5.530000000000000000e+02 1.332798146857499262e+02
5.540000000000000000e+02 1.154058944368377553e+02
5.550000000000000000e+02 8.039961809375597568e+01
5.560000000000000000e+02 5.993545412484444768e+01
5.570000000000000000e+02 6.737517717071192180e+01
5.580000000000000000e+02 8.774784314250175044e+01
5.590000000000000000e+02 7.321146182911603262e+01
5.600000000000000000e+02 6.304651059738698393e+01
5.610000000000000000e+02 8.129678921178179962e+01
5.620000000000000000e+02 7.256989801741997326e+01
5.630000000000000000e+02 6.121307985065344326e+01
5.640000000000000000e+02 8.621419237917471889e+01
5.650000000000000000e+02 1.119124600580674809e+02
5.660000000000000000e+02 1.276577906865796308e+02
5.670000000000000000e+02 1.463546130678282395e+02
5.680000000000000000e+02 1.445933608587430683e+02
5.690000000000000000e+02 1.517538521676002006e+02
5.700000000000000000e+02 1.710085161999584784e+02
5.710000000000000000e+02 2.067383024683682038e+02
5.720000000000000000e+02 2.300444373988797224e+02
5.730000000000000000e+02 2.144481483302217271e+02
5.740000000000000000e+02 3.092581082555496437e+02
5.750000000000000000e+02 3.508397818709811418e+02
5.760000000000000000e+02 3.714721649657744251e+02
5.770000000000000000e+02 4.166287962663351436e+02
5.780000000000000000e+02 4.852184076125282672e+02
5.790000000000000000e+02 5.584803441194763991e+02
5.800000000000000000e+02 5.849785143953537272e+02
5.810000000000000000e+02 7.210616801493462162e+02
5.820000000000000000e+02 8.555934104935703317e+02
5.830000000000000000e+02 9.130186050611905557e+02
5.840000000000000000e+02 9.862411020120293870e+02
5.850000000000000000e+02 1.117815261717128351e+03
5.860000000000000000e+02 1.212133901680148938e+03
5.870000000000000000e+02 1.244757878655880404e+03
5.880000000000000000e+02 1.211793100373289917e+03
5.890000000000000000e+02 1.125640857083593346e+03
5.900000000000000000e+02 1.026653878655882409e+03
5.910000000000000000e+02 9.353273056615520318e+02
5.920000000000000000e+02 8.882270114913922043e+02
5.930000000000000000e+02 8.386978524372551647e+02
5.940000000000000000e+02 7.753232473553208592e+02
5.950000000000000000e+02 7.284216414436841660e+02
5.960000000000000000e+02 6.971615448662103063e+02
5.970000000000000000e+02 6.997088557975524736e+02
5.980000000000000000e+02 6.904839919311343692e+02
5.990000000000000000e+02 6.933047594275050187e+02
6.000000000000000000e+02 7.174886707529557270e+02
6.010000000000000000e+02 7.346557522713120534e+02
6.020000000000000000e+02 7.930794784484571665e+02
6.030000000000000000e+02 8.915437332088756648e+02
6.040000000000000000e+02 1.004872548599872175e+03
6.050000000000000000e+02 1.130032836755854532e+03
6.060000000000000000e+02 1.265073289151625204e+03
6.070000000000000000e+02 1.372648645509227435e+03
6.080000000000000000e+02 1.415117090418911630e+03
6.090000000000000000e+02 1.465920348475419814e+03
6.100000000000000000e+02 1.410113085044598847e+03
6.110000000000000000e+02 1.269850535877230641e+03
6.120000000000000000e+02 1.147427303049159036e+03
6.130000000000000000e+02 1.014070316801492595e+03
6.140000000000000000e+02 8.588121740149372272e+02
6.150000000000000000e+02 7.427555529558158014e+02
6.160000000000000000e+02 6.671950369632838829e+02
6.170000000000000000e+02 6.004632478324020894e+02
6.180000000000000000e+02 5.281760247044205698e+02
6.190000000000000000e+02 4.890939405310087977e+02
6.200000000000000000e+02 4.845298417548225984e+02
6.210000000000000000e+02 4.667583723708785897e+02
6.220000000000000000e+02 4.526063454997924964e+02
6.230000000000000000e+02 4.433005414436850629e+02
6.240000000000000000e+02 3.969556910599461617e+02
6.250000000000000000e+02 4.037400316051430309e+02
6.260000000000000000e+02 4.004414573117610416e+02
6.270000000000000000e+02 3.954495226509022814e+02
6.280000000000000000e+02 3.959606598921609475e+02
6.290000000000000000e+02 3.922241535158677834e+02
6.300000000000000000e+02 3.718291756482052506e+02
6.310000000000000000e+02 3.445057652011625464e+02
6.320000000000000000e+02 3.341400032980707238e+02
6.330000000000000000e+02 3.111705770586999051e+02
6.340000000000000000e+02 2.907394916632105719e+02
6.350000000000000000e+02 2.883067033395577710e+02
6.360000000000000000e+02 2.522397792202423261e+02
6.370000000000000000e+02 2.171321110143128692e+02
6.380000000000000000e+02 2.111784992534218190e+02
6.390000000000000000e+02 1.925640354905622473e+02
6.400000000000000000e+02 1.711858481850238149e+02
6.410000000000000000e+02 1.609504425342178138e+02
6.420000000000000000e+02 9.910961575606634710e+01
6.430000000000000000e+02 9.096760592823082447e+01
6.440000000000000000e+02 1.022943041476569306e+02
6.450000000000000000e+02 9.678416558182871654e+01
6.460000000000000000e+02 7.923154393279340013e+01
6.470000000000000000e+02 7.323957852965564541e+01
6.480000000000000000e+02 9.454666914540631240e+01
6.490000000000000000e+02 6.728550151006005819e+01
6.500000000000000000e+02 8.892495078821730203e+01
6.510000000000000000e+02 7.186558968886380683e+01
6.520000000000000000e+02 1.564693472308683653e+01
6.530000000000000000e+02 2.750332336237252662e+01
6.540000000000000000e+02 7.244901285832796134e+01
6.550000000000000000e+02 3.916263781580632042e+01
6.560000000000000000e+02 5.259421232109580302e+01
6.570000000000000000e+02 5.287339279817412319e+01
6.580000000000000000e+02 1.798931657954757668e+01
6.590000000000000000e+02 1.384409500518585467e+01
6.600000000000000000e+02 3.357159360298752659e+01
6.610000000000000000e+02 3.132689070524754982e+01
6.620000000000000000e+02 6.433426384984393565e+00
6.630000000000000000e+02 3.645950731383546639e+01
6.640000000000000000e+02 2.178166856677565733e+01
6.650000000000000000e+02 2.205553619166227008e+01
6.660000000000000000e+02 1.014298570027052904e+01
6.670000000000000000e+02 1.004312246785509544e+01
6.680000000000000000e+02 1.415141318647539492e+01
6.690000000000000000e+02 1.848042210329841950e+01
6.700000000000000000e+02 4.362390690170064644e+00
6.710000000000000000e+02 6.980656011201032740e+00
6.720000000000000000e+02 1.316808458203693277e+01
6.730000000000000000e+02 3.665948238075334764e+00
6.740000000000000000e+02 1.055593743995031453e+01
6.750000000000000000e+02 3.306077934868244306e+00
6.760000000000000000e+02 3.179291252437212112e+00
6.770000000000000000e+02 1.154591111387754587e+01
6.780000000000000000e+02 2.999315913503411579e+01
6.790000000000000000e+02 9.202080138145174004e+00
6.800000000000000000e+02 2.565846775565292859e+01
6.810000000000000000e+02 1.362514207425786950e+01
6.820000000000000000e+02 7.797088372122665589e+00
6.830000000000000000e+02 2.794635428749193196e+01
6.840000000000000000e+02 2.371882876996468426e+01
6.850000000000000000e+02 4.104203853972204996e+01
6.860000000000000000e+02 6.154603952084627139e+01
6.870000000000000000e+02 6.391120340385813847e+01
6.880000000000000000e+02 5.435525040448021628e+01
6.890000000000000000e+02 4.047874529765557128e+01
6.900000000000000000e+02 1.042137990750732257e+01
6.910000000000000000e+02 3.416392922007944577e+01
6.920000000000000000e+02 6.174233265712523178e+01
6.930000000000000000e+02 5.276589753836552177e+01
6.940000000000000000e+02 2.840517929890045679e+01
6.950000000000000000e+02 2.711322485791336590e+01
6.960000000000000000e+02 4.361508864786414108e+01
6.970000000000000000e+02 6.274255700684519610e+01
6.980000000000000000e+02 5.576286972412358978e+01
6.990000000000000000e+02 3.660624672749871422e+01
7.000000000000000000e+02 3.804789811035042391e+01
7.010000000000000000e+02 5.896195729931547191e+01
7.020000000000000000e+02 5.844432261978838028e+01
7.030000000000000000e+02 5.642440951462354093e+01
7.040000000000000000e+02 6.620973245956032827e+01
7.050000000000000000e+02 6.387006036714365820e+01
7.060000000000000000e+02 6.144923032358430959e+01
7.070000000000000000e+02 6.894120838448776567e+01
7.080000000000000000e+02 7.446169116158483803e+01
7.090000000000000000e+02 9.892791796722666220e+01
7.100000000000000000e+02 8.431862301534629012e+01
7.110000000000000000e+02 7.880599761667706105e+01
7.120000000000000000e+02 1.065004256295370766e+02
7.130000000000000000e+02 1.248460496889257314e+02
7.140000000000000000e+02 1.033850992947521661e+02
7.150000000000000000e+02 1.155467967019288835e+02
7.160000000000000000e+02 1.320313004978220022e+02
7.170000000000000000e+02 1.052805628666249333e+02
7.180000000000000000e+02 9.991417080273825491e+01
7.190000000000000000e+02 1.301277030699024806e+02
7.200000000000000000e+02 1.336815116988181842e+02
7.210000000000000000e+02 8.137876715826668317e+01
7.220000000000000000e+02 6.457630014104958605e+01
7.230000000000000000e+02 6.137485600705245048e+01
7.240000000000000000e+02 8.885634023024142891e+01
7.250000000000000000e+02 9.499923360298720354e+01
7.260000000000000000e+02 6.720372373573968616e+01
7.270000000000000000e+02 7.678162606513143373e+01
7.280000000000000000e+02 7.893422206596143553e+01
7.290000000000000000e+02 6.835801797759829412e+01
7.300000000000000000e+02 5.182315668394868879e+01
7.310000000000000000e+02 6.763045252229841253e+01
7.320000000000000000e+02 1.003685081248703739e+02
7.330000000000000000e+02 9.210771046039086229e+01
7.340000000000000000e+02 5.935605852520230030e+01
7.350000000000000000e+02 8.617265785729169636e+01
7.360000000000000000e+02 8.534756762754106774e+01
7.370000000000000000e+02 6.126396876374251832e+01
7.380000000000000000e+02 5.748454438083319928e+01
7.390000000000000000e+02 6.399138799253456256e+01
7.400000000000000000e+02 3.102570892760922661e+01
7.410000000000000000e+02 2.462153082140638816e+01
7.420000000000000000e+02 2.484367391746161857e+01
7.430000000000000000e+02 2.775189950840059083e+01
7.440000000000000000e+02 3.643181358224397570e+01
7.450000000000000000e+02 5.293804050819326079e+01
7.460000000000000000e+02 6.798857284588262928e+01
7.470000000000000000e+02 6.479144855631598432e+01
7.480000000000000000e+02 1.144314631611704698e+02
7.490000000000000000e+02 5.539947804812090482e+01
7.500000000000000000e+02 8.433060153495567590e+00
7.510000000000000000e+02 1.509581110350504574e+01
7.520000000000000000e+02 4.514456719352811831e+01
7.530000000000000000e+02 8.472753738642925470e+00
7.540000000000000000e+02 7.590178291848422631e+00
7.550000000000000000e+02 1.239096327857252078e+01
7.560000000000000000e+02 9.704150612609094395e+00
7.570000000000000000e+02 2.139434042314770679e+01
7.580000000000000000e+02 3.172930164074011117e+01
7.590000000000000000e+02 1.650531364578905524e+01
7.600000000000000000e+02 4.428172727027585864e+01
7.610000000000000000e+02 3.132334944617282346e+01
7.620000000000000000e+02 4.417652751711299430e+01
7.630000000000000000e+02 4.007607963078163493e+01
7.640000000000000000e+02 2.259969226923894325e+01
7.650000000000000000e+02 2.123902245592148219e+01
7.660000000000000000e+02 2.238018953951334655e+00
7.670000000000000000e+02 2.110171809582991642e+01
7.680000000000000000e+02 7.618438878864671082e+00
7.690000000000000000e+02 8.203731182327908655e+00
7.700000000000000000e+02 2.342661721841876954e+01
7.710000000000000000e+02 1.818903729309332817e+01
7.720000000000000000e+02 2.940454991704768872e+01
7.730000000000000000e+02 8.452946708358606287e+00
7.740000000000000000e+02 4.947047135656480066e+01
7.750000000000000000e+02 2.715261848195795835e+01
7.760000000000000000e+02 5.437695407591922603e+00
7.770000000000000000e+02 7.827571184194068721e+00
7.780000000000000000e+02 3.765680892161059390e+00
7.790000000000000000e+02 1.141277206098288133e+01
7.800000000000000000e+02 3.431547092719486614e+01
7.810000000000000000e+02 5.899304180837769707e+01
7.820000000000000000e+02 1.826101460277594413e+01
7.830000000000000000e+02 9.732087943176701117e+00
7.840000000000000000e+02 5.893935772659903094e+00
7.850000000000000000e+02 3.498199631611615246e+01
7.860000000000000000e+02 4.891233738075500526e+01
7.870000000000000000e+02 4.599934870773719808e+01
7.880000000000000000e+02 2.949672611491419971e+01
7.890000000000000000e+02 3.671838670261277571e+01
7.900000000000000000e+02 5.386691656502801351e+01
7.910000000000000000e+02 6.402993863928645624e+01
7.920000000000000000e+02 8.427121291995072738e+01
7.930000000000000000e+02 1.260018152665431046e+02
7.940000000000000000e+02 1.519650925326699280e+02
7.950000000000000000e+02 1.184427274989611192e+02
7.960000000000000000e+02 1.634471967226760682e+02
7.970000000000000000e+02 2.359971006430207865e+02
7.980000000000000000e+02 2.276902890894053257e+02
7.990000000000000000e+02 1.719644729309295883e+02
8.000000000000000000e+02 2.571404866417777839e+02
8.010000000000000000e+02 3.048110513378958331e+02
8.020000000000000000e+02 3.455218783447405144e+02
8.030000000000000000e+02 3.821435577473544072e+02
8.040000000000000000e+02 4.532409168014929151e+02
8.050000000000000000e+02 5.675376704418165446e+02
8.060000000000000000e+02 6.567632190209493501e+02
8.070000000000000000e+02 7.479848316739285110e+02
8.080000000000000000e+02 9.418222815183606826e+02
8.090000000000000000e+02 1.140528956648000985e+03
8.100000000000000000e+02 1.399795646338944834e+03
8.110000000000000000e+02 1.684717059116371502e+03
8.120000000000000000e+02 1.921243428452928811e+03
8.130000000000000000e+02 2.223958365899205091e+03
8.140000000000000000e+02 2.738938522505714900e+03
8.150000000000000000e+02 3.203159263583585926e+03
8.160000000000000000e+02 3.797737029039637036e+03
8.170000000000000000e+02 4.472733603609221063e+03
8.180000000000000000e+02 5.247828377851534242e+03
8.190000000000000000e+02 6.201143380626414910e+03
8.200000000000000000e+02 7.203257276706064658e+03
8.210000000000000000e+02 8.277419128992145488e+03
8.220000000000000000e+02 9.493819768512768860e+03
8.230000000000000000e+02 1.060026743829082079e+04
8.240000000000000000e+02 1.130603000000000793e+04
8.250000000000000000e+02 1.134146950425222167e+04
8.260000000000000000e+02 1.057544593030490796e+04
8.270000000000000000e+02 9.169646212196606939e+03
8.280000000000000000e+02 7.604126037751487274e+03
8.290000000000000000e+02 6.120122428334369033e+03
8.300000000000000000e+02 4.949339284588243572e+03
8.310000000000000000e+02 4.159862364032353980e+03
8.320000000000000000e+02 3.585308487450737630e+03
8.330000000000000000e+02 3.111235066376265422e+03
8.340000000000000000e+02 2.827458436838829584e+03
8.350000000000000000e+02 2.646542069695085047e+03
8.360000000000000000e+02 2.512350887990043248e+03
8.370000000000000000e+02 2.520766011200995763e+03
8.380000000000000000e+02 2.594265659684777802e+03
8.390000000000000000e+02 2.682739102260942218e+03
8.400000000000000000e+02 2.860831769757310212e+03
8.410000000000000000e+02 3.212970708834505785e+03
8.420000000000000000e+02 3.653546594067621299e+03
8.430000000000000000e+02 4.144689053723289362e+03
8.440000000000000000e+02 4.784395557445040140e+03
8.450000000000000000e+02 5.580834706285000721e+03
8.460000000000000000e+02 6.502280053723281526e+03
8.470000000000000000e+02 7.596279479883861313e+03
8.480000000000000000e+02 8.936489226094161495e+03
8.490000000000000000e+02 1.039246891848161613e+04
8.500000000000000000e+02 1.202476851099128908e+04
8.510000000000000000e+02 1.398671513793818121e+04
8.520000000000000000e+02 1.610819410703172798e+04
8.530000000000000000e+02 1.841556292263014620e+04
8.540000000000000000e+02 2.084277939639083706e+04
8.550000000000000000e+02 2.307670282721430704e+04
8.560000000000000000e+02 2.469699093341629487e+04
8.570000000000000000e+02 2.502950223605062274e+04
8.580000000000000000e+02 2.341054566894841992e+04
8.590000000000000000e+02 2.007850308649663202e+04
8.600000000000000000e+02 1.617686981331682728e+04
8.610000000000000000e+02 1.261585950840085570e+04
8.620000000000000000e+02 9.699377707529603867e+03
8.630000000000000000e+02 7.614157615432533930e+03
8.640000000000000000e+02 6.068913940688548792e+03
8.650000000000000000e+02 4.965575836548440748e+03
8.660000000000000000e+02 4.206095925534127673e+03
8.670000000000000000e+02 3.610774506636253136e+03
8.680000000000000000e+02 3.110157865588047116e+03
8.690000000000000000e+02 2.766621362165522896e+03
8.700000000000000000e+02 2.563637983409379103e+03
8.710000000000000000e+02 2.428330358846715626e+03
8.720000000000000000e+02 2.349900916614808466e+03
8.730000000000000000e+02 2.328590922646204945e+03
8.740000000000000000e+02 2.358352757934037072e+03
8.750000000000000000e+02 2.450276866002898714e+03
8.760000000000000000e+02 2.624331645375356857e+03
8.770000000000000000e+02 2.887736697573106994e+03
8.780000000000000000e+02 3.188665187512951888e+03
8.790000000000000000e+02 3.519231404065541938e+03
8.800000000000000000e+02 3.877669928645503660e+03
8.810000000000000000e+02 4.286229555071555296e+03
8.820000000000000000e+02 4.535469369010579612e+03
8.830000000000000000e+02 4.411187779759447949e+03
8.840000000000000000e+02 3.883894716033996247e+03
8.850000000000000000e+02 3.027025158265895243e+03
8.860000000000000000e+02 2.218794258660046580e+03
8.870000000000000000e+02 1.658032387678920713e+03
8.880000000000000000e+02 1.204456039825781318e+03
8.890000000000000000e+02 8.502499621240491479e+02
8.900000000000000000e+02 6.313467923045079715e+02
8.910000000000000000e+02 5.018697749896361984e+02
8.920000000000000000e+02 3.905761896079661710e+02
8.930000000000000000e+02 3.502390880315292634e+02
8.940000000000000000e+02 3.183329055785989112e+02
8.950000000000000000e+02 2.303286624974069241e+02
8.960000000000000000e+02 1.390167207840696051e+02
8.970000000000000000e+02 1.121339083367900713e+02
8.980000000000000000e+02 1.033771574051013715e+02
8.990000000000000000e+02 4.140443120721727155e+01
9.000000000000000000e+02 1.061413852550884585e+01
9.010000000000000000e+02 7.832135708774369043e+00
9.020000000000000000e+02 3.277638410081117115e+01
9.030000000000000000e+02 6.279839051430862185e+01
9.040000000000000000e+02 7.791624613773055330e+01
9.050000000000000000e+02 6.925006503422687842e+01
9.060000000000000000e+02 4.726177013690092821e+01
9.070000000000000000e+02 4.276151129226416714e+01
9.080000000000000000e+02 4.903169726197331713e+00
9.090000000000000000e+02 1.398287541588881311e+01
9.100000000000000000e+02 1.440279044803977904e+01
9.110000000000000000e+02 6.200936574362121689e+01
9.120000000000000000e+02 1.056400323999173025e+02
9.130000000000000000e+02 1.362908603194367174e+02
9.140000000000000000e+02 1.908272594897331658e+02
9.150000000000000000e+02 2.377733287492244187e+02
9.160000000000000000e+02 3.202605209500136425e+02
9.170000000000000000e+02 3.978097907073250781e+02
9.180000000000000000e+02 5.538798774942875980e+02
9.190000000000000000e+02 6.807181489732454338e+02
9.200000000000000000e+02 7.467179346744104578e+02
9.210000000000000000e+02 7.391263010993596936e+02
9.220000000000000000e+02 5.891162042314958853e+02
9.230000000000000000e+02 3.320868761095023274e+02
9.240000000000000000e+02 2.157905626011210529e+02
9.250000000000000000e+02 1.043242079858963081e+02
9.260000000000000000e+02 3.276066573206122001e+01
9.270000000000000000e+02 3.249487611450000912e+01
9.280000000000000000e+02 5.029638451151183176e+01
9.290000000000000000e+02 2.228284436748206332e+01
9.300000000000000000e+02 2.213657783654797129e+01
9.310000000000000000e+02 1.453970466708140918e+01
9.320000000000000000e+02 4.711742156191316866e+00
9.330000000000000000e+02 6.029525366521591323e+00
9.340000000000000000e+02 8.494905220908185228e+00
9.350000000000000000e+02 2.657567425637617831e+01
9.360000000000000000e+02 5.105316335822389107e+01
9.370000000000000000e+02 3.940957952084634286e+01
9.380000000000000000e+02 5.167608693839419942e+01
9.390000000000000000e+02 8.108643866210263695e+01
9.400000000000000000e+02 1.337041074673296066e+02
9.410000000000000000e+02 1.518210190209500468e+02
9.420000000000000000e+02 1.691152248911015192e+02
9.430000000000000000e+02 2.114330550508194904e+02
9.440000000000000000e+02 2.595173354905632550e+02
9.450000000000000000e+02 2.936861924289571562e+02
9.460000000000000000e+02 3.235225181252596371e+02
9.470000000000000000e+02 3.632060907902940698e+02
9.480000000000000000e+02 4.360159759178608283e+02
9.490000000000000000e+02 5.305821763998357028e+02
9.500000000000000000e+02 6.467852308857108028e+02
9.510000000000000000e+02 7.048283080273802170e+02
9.520000000000000000e+02 8.279568055163874760e+02
9.530000000000000000e+02 1.035321058286664993e+03
9.540000000000000000e+02 1.143199058494089286e+03
9.550000000000000000e+02 1.271097462048944863e+03
9.560000000000000000e+02 1.452533943372743806e+03
9.570000000000000000e+02 1.638936656502799678e+03
9.580000000000000000e+02 1.856562898568766286e+03
9.590000000000000000e+02 2.091383964530182766e+03
9.600000000000000000e+02 2.356575805849408880e+03
9.610000000000000000e+02 2.656666137523340240e+03
9.620000000000000000e+02 2.973684680771626518e+03
9.630000000000000000e+02 3.320891893797966077e+03
9.640000000000000000e+02 3.639784766023649809e+03
9.650000000000000000e+02 3.831859261356565185e+03
9.660000000000000000e+02 3.847032549885916524e+03
9.670000000000000000e+02 3.549185525409662660e+03
9.680000000000000000e+02 3.060955272142709873e+03
9.690000000000000000e+02 2.507682520846304215e+03
9.700000000000000000e+02 1.931376783447421303e+03
9.710000000000000000e+02 1.491768407176936535e+03
9.720000000000000000e+02 1.137644533803404784e+03
9.730000000000000000e+02 8.879553203277328066e+02
9.740000000000000000e+02 7.337696979464824381e+02
9.750000000000000000e+02 5.827502807548754618e+02
9.760000000000000000e+02 4.574418404480401250e+02
9.770000000000000000e+02 3.844977970338111959e+02
9.780000000000000000e+02 3.215426445043558488e+02
9.790000000000000000e+02 2.486541774113259464e+02
9.800000000000000000e+02 2.025261610454268748e+02
9.810000000000000000e+02 1.810890007051017392e+02
9.820000000000000000e+02 1.907634200165939262e+02
9.830000000000000000e+02 1.401839643434989000e+02
9.840000000000000000e+02 9.253794253007072257e+01
9.850000000000000000e+02 8.979275734287483601e+01
9.860000000000000000e+02 7.774044389545848333e+01
9.870000000000000000e+02 2.104632763949367913e+01
9.880000000000000000e+02 9.142976002489199061e+00
9.890000000000000000e+02 2.555451833437051690e+01
9.900000000000000000e+02 2.278827199958541883e+01
9.910000000000000000e+02 2.291272819539402406e+01
9.920000000000000000e+02 3.459521449284319772e+01
9.930000000000000000e+02 2.861802603733500661e+01
9.940000000000000000e+02 5.909053914125797746e+01
9.950000000000000000e+02 1.273843321510160109e+01
9.960000000000000000e+02 1.125703313918261372e+01
9.970000000000000000e+02 2.260510037958902174e+01
9.980000000000000000e+02 2.100678552167624957e+01
9.990000000000000000e+02 6.141595476457023750e+00
1.000000000000000000e+03 2.472096272311294030e+00
1.001000000000000000e+03 3.244524498964781856e+01
1.002000000000000000e+03 3.616630290456549801e+01
1.003000000000000000e+03 1.065435275518655267e+01
1.004000000000000000e+03 1.203142109543644800e+01
1.005000000000000000e+03 1.725470000000044024e+01
1.006000000000000000e+03 2.089130489626559850e+01
1.007000000000000000e+03 8.427862485477383814e+00
1.008000000000000000e+03 1.718515724066391215e+01
1.009000000000000000e+03 6.512628682573291528e+00
1.010000000000000000e+03 1.491486751037419545e+01
1.011000000000000000e+03 2.256154174273918045e+01
1.012000000000000000e+03 3.609076730291306490e+00
1.013000000000000000e+03 2.690215010351976943e+01
1.014000000000000000e+03 1.511305685269789123e+01
1.015000000000000000e+03 1.908814082365089260e-01
1.016000000000000000e+03 8.316296846472781112e+00
1.017000000000000000e+03 3.077349879667862886e+00
1.018000000000000000e+03 1.214975659751022619e+01
1.019000000000000000e+03 1.111684761825748424e+01
1.020000000000000000e+03 4.392081647302904734e+00
1.021000000000000000e+03 8.211945917012062779e+00
1.022000000000000000e+03 4.334938151452423938e+01
1.023000000000000000e+03 8.341859475103683508e+01
1.024000000000000000e+03 3.134958906639391429e+01
1.025000000000000000e+03 2.431441363070796058e+00
1.026000000000000000e+03 2.036548435684904490e+01
1.027000000000000000e+03 6.177394290456062009e+01
1.028000000000000000e+03 7.593318568464775353e+01
1.029000000000000000e+03 9.354957153527168146e+01
1.030000000000000000e+03 1.101483289855059411e+02
1.031000000000000000e+03 1.596322823651591705e+01
1.032000000000000000e+03 2.980712999999999724e+01
1.033000000000000000e+03 1.541702906638966297e+01
1.034000000000000000e+03 6.927061173912969139e+01
1.035000000000000000e+03 8.541785701244842244e+01
1.036000000000000000e+03 6.299605398340133888e+01
1.037000000000000000e+03 7.761316203319915985e+01
1.038000000000000000e+03 8.124117261411038271e+01
1.039000000000000000e+03 2.930478630705389875e+01
1.040000000000000000e+03 2.991202230290470254e+01
1.041000000000000000e+03 3.991679846472698046e+01
1.042000000000000000e+03 7.993017524896217196e+01
1.043000000000000000e+03 7.977870987551857240e+01
1.044000000000000000e+03 1.033107585477185353e+02
1.045000000000000000e+03 8.203940987552171293e+01
1.046000000000000000e+03 6.620040174273879074e+01
1.047000000000000000e+03 9.061152056016757683e+01
1.048000000000000000e+03 9.509181628630773275e+01
1.049000000000000000e+03 8.451875970954363027e+01
1.050000000000000000e+03 9.221059232365175262e+01
1.051000000000000000e+03 8.737543448132824153e+01
1.052000000000000000e+03 8.464608278008307707e+01
1.053000000000000000e+03 7.728922593360971405e+01
1.054000000000000000e+03 6.393550464730243732e+01
1.055000000000000000e+03 8.179424381742509809e+01
1.056000000000000000e+03 9.090127775933613918e+01
1.057000000000000000e+03 5.997774570539343131e+01
1.058000000000000000e+03 5.928812531120368590e+01
1.059000000000000000e+03 7.690798950310519899e+01
1.060000000000000000e+03 7.969269253112020124e+01
1.061000000000000000e+03 6.680286829875404919e+01
1.062000000000000000e+03 6.829183294605752508e+01
1.063000000000000000e+03 7.534878848861286826e+01
1.064000000000000000e+03 3.254226425310692150e+01
1.065000000000000000e+03 2.009337890041240726e+01
1.066000000000000000e+03 6.550246684647211737e+01
1.067000000000000000e+03 7.074809960662354058e+01
1.068000000000000000e+03 2.966457290456510165e+01
1.069000000000000000e+03 4.995368634854666823e+01
1.070000000000000000e+03 6.249983763485478505e+01
1.071000000000000000e+03 5.470263927536199589e+01
1.072000000000000000e+03 6.476625732365069155e+01
1.073000000000000000e+03 3.485604778008402604e+01
1.074000000000000000e+03 3.271228232364828070e+00
1.075000000000000000e+03 5.664662726707707208e+00
1.076000000000000000e+03 9.326661468879784422e+00
1.077000000000000000e+03 1.473657506223902125e+00
1.078000000000000000e+03 1.159064792531194144e+01
1.079000000000000000e+03 8.359412987552794050e+00
1.080000000000000000e+03 4.791744705394189197e+01
1.081000000000000000e+03 2.849528661825658205e+01
1.082000000000000000e+03 4.553666165975276670e+01
1.083000000000000000e+03 3.414832738589427663e+01
1.084000000000000000e+03 3.881880738589421043e+01
1.085000000000000000e+03 6.958326414937553750e+01
1.086000000000000000e+03 5.685822751037321154e+01
1.087000000000000000e+03 6.007875838174277305e+01
1.088000000000000000e+03 5.859831692946173831e+01
1.089000000000000000e+03 8.709484186721925880e+01
1.090000000000000000e+03 5.565474973029189698e+01
1.091000000000000000e+03 2.967207130705347140e+01
1.092000000000000000e+03 3.370958443983555952e+01
1.093000000000000000e+03 2.692704232365196049e+01
1.094000000000000000e+03 4.158559074688820090e+01
1.095000000000000000e+03 9.051900116182859790e+01
1.096000000000000000e+03 8.956592236025835518e+01
1.097000000000000000e+03 1.382256099585071496e+01
1.098000000000000000e+03 3.278352331950291898e+01
1.099000000000000000e+03 3.986011863070542915e+01
1.100000000000000000e+03 1.564194850931746572e+01
1.101000000000000000e+03 4.995691817427489667e+01
1.102000000000000000e+03 7.283384875518690649e+01
1.103000000000000000e+03 7.459509348547713614e+01
1.104000000000000000e+03 2.985546695652232074e+01
1.105000000000000000e+03 2.131015713691990499e+00
1.106000000000000000e+03 4.557234105808843339e+01
1.107000000000000000e+03 3.430609829875456285e+01
1.108000000000000000e+03 4.584113358178040443e+01
1.109000000000000000e+03 3.670518858921186478e+01
1.110000000000000000e+03 5.265119829875364132e+01
1.111000000000000000e+03 7.317304962655579459e+01
1.112000000000000000e+03 9.296272053941976310e+01
1.113000000000000000e+03 7.000924535270172555e+01
1.114000000000000000e+03 5.884552568464619071e+01
1.115000000000000000e+03 6.270644394190787096e+01
1.116000000000000000e+03 3.974182151452220779e+01
1.117000000000000000e+03 4.464144352697079654e+01
1.118000000000000000e+03 3.392470518672191560e+01
1.119000000000000000e+03 1.329475270954442578e+01
1.120000000000000000e+03 1.958401388406154808e+01
1.121000000000000000e+03 3.126183576763414607e+01
1.122000000000000000e+03 5.042034093360967972e+01
1.123000000000000000e+03 3.662507792531042128e+01
1.124000000000000000e+03 2.712136591286292742e+01
1.125000000000000000e+03 3.816518817805395258e+01
1.126000000000000000e+03 3.799796556016316629e+01
1.127000000000000000e+03 2.871336609958092367e+01
1.128000000000000000e+03 8.701606236514396642e+01
1.129000000000000000e+03 9.423214869565097729e+01
1.130000000000000000e+03 2.521255037344792882e+01
1.131000000000000000e+03 1.447959263485402603e+00
1.132000000000000000e+03 4.273340873444043098e+01
1.133000000000000000e+03 2.806036581780045580e+01
1.134000000000000000e+03 4.920762253111607976e+01
1.135000000000000000e+03 8.122526879668072297e+01
1.136000000000000000e+03 6.656433506224023233e+01
1.137000000000000000e+03 5.759144246376764187e+01
1.138000000000000000e+03 4.332245334024993610e+01
1.139000000000000000e+03 2.606780103734453391e+01
1.140000000000000000e+03 5.121484234440113426e+01
1.141000000000000000e+03 8.097568221991505766e+01
1.142000000000000000e+03 9.969042871369296677e+01
1.143000000000000000e+03 4.252282713692422078e+01
1.144000000000000000e+03 2.221729327800720455e+01
1.145000000000000000e+03 6.484822116182333218e+01
1.146000000000000000e+03 7.157776556016473535e+01
1.147000000000000000e+03 3.705208682572651924e+01
1.148000000000000000e+03 5.326495659750666789e+01
1.149000000000000000e+03 8.423985857142862699e+01
1.150000000000000000e+03 5.070384074688995213e+01
1.151000000000000000e+03 9.053574049792254641e+01
1.152000000000000000e+03 9.504346796680582088e+01
1.153000000000000000e+03 3.482775954356679904e+01
1.154000000000000000e+03 4.398281999999889536e+01
1.155000000000000000e+03 1.079561036099552069e+02
1.156000000000000000e+03 1.347516680497924710e+02
1.157000000000000000e+03 1.101192574688771799e+02
1.158000000000000000e+03 1.534421612009023761e+01
1.159000000000000000e+03 9.630030929460484401e+01
1.160000000000000000e+03 1.737836639003252515e+01
1.161000000000000000e+03 4.170524468879374780e+01
1.162000000000000000e+03 7.379923639004724123e+01
1.163000000000000000e+03 6.462111329875534693e+01
1.164000000000000000e+03 8.720408655601215742e+01
1.165000000000000000e+03 7.650164626555270786e+01
1.166000000000000000e+03 1.050123677639758881e+02
1.167000000000000000e+03 7.604319153525953823e+01
1.168000000000000000e+03 7.459274950207529287e+01
1.169000000000000000e+03 3.804925983402493017e+01
1.170000000000000000e+03 5.472441958506260562e+01
1.171000000000000000e+03 7.602642074688975526e+01
1.172000000000000000e+03 8.039997914937802648e+01
1.173000000000000000e+03 5.199669796680517919e+01
1.174000000000000000e+03 4.739378498964743613e+01
1.175000000000000000e+03 3.363664829875461493e+01
1.176000000000000000e+03 5.436811257261350505e+01
1.177000000000000000e+03 5.515780908713647079e+01
1.178000000000000000e+03 6.783962492753700246e+01
1.179000000000000000e+03 5.518410174274259816e+01
1.180000000000000000e+03 4.171013439834078440e+01
1.181000000000000000e+03 7.096243620331733837e+01
1.182000000000000000e+03 4.347884792531107223e+01
1.183000000000000000e+03 6.300408037267072814e+01
1.184000000000000000e+03 3.270349365145158060e+01
1.185000000000000000e+03 5.520193195021003874e+01
1.186000000000000000e+03 2.687293161825984100e+01
1.187000000000000000e+03 8.912947128364532290e+00
1.188000000000000000e+03 6.489159549795074255e+00
1.189000000000000000e+03 3.331056898340171557e+01
1.190000000000000000e+03 1.611788135477249995e+01
1.191000000000000000e+03 7.019028547717157451e+00
1.192000000000000000e+03 2.074789896265666300e+01
1.193000000000000000e+03 3.503932535269730408e+01
1.194000000000000000e+03 2.838057842323650704e+01
1.195000000000000000e+03 1.990226631469726115e+01
1.196000000000000000e+03 1.684782224066257328e+01
1.197000000000000000e+03 1.329849367219894418e+01
1.198000000000000000e+03 7.323791892115225188e+00
1.199000000000000000e+03 1.215409864596191980e+01
1.200000000000000000e+03 6.705901269709954704e+00
1.201000000000000000e+03 2.144650784232555285e+00
1.202000000000000000e+03 1.431201887966905062e+01
1.203000000000000000e+03 9.886920170124954055e+00
1.204000000000000000e+03 9.519422838174442347e+00
1.205000000000000000e+03 1.996152560995534486e+01
1.206000000000000000e+03 8.684983547717363805e+00
1.207000000000000000e+03 4.268237625258769441e+01
1.208000000000000000e+03 2.802648087136824628e+01
1.209000000000000000e+03 1.220767315352724580e+01
1.210000000000000000e+03 1.666285819916873123e+01
1.211000000000000000e+03 9.553378614107873545e+01
1.212000000000000000e+03 8.718755435684192889e+01
1.213000000000000000e+03 1.957178568465359803e+01
1.214000000000000000e+03 1.135104865145117614e+01
1.215000000000000000e+03 7.465275954451647067e+01
1.216000000000000000e+03 9.517310763486344172e+01
1.217000000000000000e+03 3.086064348547764524e+01
1.218000000000000000e+03 3.699998207468934908e+01
1.219000000000000000e+03 5.614735858920874989e+01
1.220000000000000000e+03 1.392250796680445291e+01
1.221000000000000000e+03 5.296877551867191869e+01
1.222000000000000000e+03 3.547157016597375900e+01
1.223000000000000000e+03 2.726264989626523771e+01
1.224000000000000000e+03 8.773103575569068369e+01
1.225000000000000000e+03 5.569311327800573963e+01
1.226000000000000000e+03 7.352887821575674110e+00
1.227000000000000000e+03 3.766982406638607728e+01
1.228000000000000000e+03 6.094151834024875569e+01
1.229000000000000000e+03 2.856274755186490211e+01
1.230000000000000000e+03 5.052135647303180654e+00
1.231000000000000000e+03 1.618512493775787675e+01
1.232000000000000000e+03 5.322997780083113639e+01
1.233000000000000000e+03 6.517308950207447538e+01
1.234000000000000000e+03 3.495324502074751649e+01
1.235000000000000000e+03 7.264870999999993728e+01
1.236000000000000000e+03 5.490239322981076953e+01
1.237000000000000000e+03 6.744111085061949495e+01
1.238000000000000000e+03 4.962154792531245562e+01
1.239000000000000000e+03 4.281521132780163441e+01
1.240000000000000000e+03 6.094185336099718597e+01
1.241000000000000000e+03 4.028898099585308046e+01
1.242000000000000000e+03 8.195034854772092814e+00
1.243000000000000000e+03 2.890774609958592833e+01
1.244000000000000000e+03 4.522594697722317392e+01
1.245000000000000000e+03 7.346475970954328716e+01
1.246000000000000000e+03 8.023904259335867550e+01
1.247000000000000000e+03 1.165365433609942158e+01
1.248000000000000000e+03 1.170622508298565023e+01
1.249000000000000000e+03 4.553392132780156487e+01
1.250000000000000000e+03 3.382686697095172690e+01
1.251000000000000000e+03 4.399769542077491380e+00
1.252000000000000000e+03 3.439407050207354644e+01
1.253000000000000000e+03 5.455681708074460801e+01
1.254000000000000000e+03 1.986553456431957798e+01
1.255000000000000000e+03 0.000000000000000000e+00
1.256000000000000000e+03 0.000000000000000000e+00
1.257000000000000000e+03 0.000000000000000000e+00
1.258000000000000000e+03 0.000000000000000000e+00
1.259000000000000000e+03 0.000000000000000000e+00
1.260000000000000000e+03 0.000000000000000000e+00
1.261000000000000000e+03 0.000000000000000000e+00
1.262000000000000000e+03 0.000000000000000000e+00
1.263000000000000000e+03 0.000000000000000000e+00
1.264000000000000000e+03 0.000000000000000000e+00
1.265000000000000000e+03 0.000000000000000000e+00
1.266000000000000000e+03 0.000000000000000000e+00
1.267000000000000000e+03 0.000000000000000000e+00
1.268000000000000000e+03 0.000000000000000000e+00
1.269000000000000000e+03 0.000000000000000000e+00
1.270000000000000000e+03 0.000000000000000000e+00
1.271000000000000000e+03 0.000000000000000000e+00
1.272000000000000000e+03 0.000000000000000000e+00
1.273000000000000000e+03 0.000000000000000000e+00
1.274000000000000000e+03 0.000000000000000000e+00
1.275000000000000000e+03 0.000000000000000000e+00
1.276000000000000000e+03 0.000000000000000000e+00
1.277000000000000000e+03 0.000000000000000000e+00
1.278000000000000000e+03 0.000000000000000000e+00
1.279000000000000000e+03 0.000000000000000000e+00
1.280000000000000000e+03 0.000000000000000000e+00
1.281000000000000000e+03 0.000000000000000000e+00
1.282000000000000000e+03 0.000000000000000000e+00
1.283000000000000000e+03 0.000000000000000000e+00
1.284000000000000000e+03 0.000000000000000000e+00
1.285000000000000000e+03 0.000000000000000000e+00
1.286000000000000000e+03 0.000000000000000000e+00
1.287000000000000000e+03 0.000000000000000000e+00
1.288000000000000000e+03 0.000000000000000000e+00
1.289000000000000000e+03 0.000000000000000000e+00
1.290000000000000000e+03 0.000000000000000000e+00
1.291000000000000000e+03 0.000000000000000000e+00
1.292000000000000000e+03 0.000000000000000000e+00
1.293000000000000000e+03 0.000000000000000000e+00
1.294000000000000000e+03 0.000000000000000000e+00
1.295000000000000000e+03 0.000000000000000000e+00
1.296000000000000000e+03 0.000000000000000000e+00
1.297000000000000000e+03 0.000000000000000000e+00
1.298000000000000000e+03 0.000000000000000000e+00
1.299000000000000000e+03 0.000000000000000000e+00
1.300000000000000000e+03 0.000000000000000000e+00
1.301000000000000000e+03 0.000000000000000000e+00
1.302000000000000000e+03 0.000000000000000000e+00
1.303000000000000000e+03 0.000000000000000000e+00
1.304000000000000000e+03 0.000000000000000000e+00
1.305000000000000000e+03 0.000000000000000000e+00
1.306000000000000000e+03 0.000000000000000000e+00
1.307000000000000000e+03 0.000000000000000000e+00
1.308000000000000000e+03 0.000000000000000000e+00
1.309000000000000000e+03 0.000000000000000000e+00
1.310000000000000000e+03 0.000000000000000000e+00
1.311000000000000000e+03 0.000000000000000000e+00
1.312000000000000000e+03 0.000000000000000000e+00
1.313000000000000000e+03 0.000000000000000000e+00
1.314000000000000000e+03 0.000000000000000000e+00
1.315000000000000000e+03 0.000000000000000000e+00
1.316000000000000000e+03 0.000000000000000000e+00
1.317000000000000000e+03 0.000000000000000000e+00
1.318000000000000000e+03 0.000000000000000000e+00
1.319000000000000000e+03 0.000000000000000000e+00
1.320000000000000000e+03 0.000000000000000000e+00
1.321000000000000000e+03 0.000000000000000000e+00
1.322000000000000000e+03 0.000000000000000000e+00
1.323000000000000000e+03 0.000000000000000000e+00
1.324000000000000000e+03 0.000000000000000000e+00
1.325000000000000000e+03 0.000000000000000000e+00
1.326000000000000000e+03 0.000000000000000000e+00
1.327000000000000000e+03 0.000000000000000000e+00
1.328000000000000000e+03 0.000000000000000000e+00
1.329000000000000000e+03 0.000000000000000000e+00
1.330000000000000000e+03 0.000000000000000000e+00
1.331000000000000000e+03 0.000000000000000000e+00
1.332000000000000000e+03 0.000000000000000000e+00
1.333000000000000000e+03 0.000000000000000000e+00
1.334000000000000000e+03 0.000000000000000000e+00
1.335000000000000000e+03 0.000000000000000000e+00
1.336000000000000000e+03 0.000000000000000000e+00
1.337000000000000000e+03 0.000000000000000000e+00
1.338000000000000000e+03 0.000000000000000000e+00
1.339000000000000000e+03 0.000000000000000000e+00
1.340000000000000000e+03 0.000000000000000000e+00
1.341000000000000000e+03 0.000000000000000000e+00
1.342000000000000000e+03 0.000000000000000000e+00
1.343000000000000000e+03 0.000000000000000000e+00
1.344000000000000000e+03 0.000000000000000000e+00
1.345000000000000000e+03 0.000000000000000000e+00
1.346000000000000000e+03 0.000000000000000000e+00
1.347000000000000000e+03 0.000000000000000000e+00
1.348000000000000000e+03 0.000000000000000000e+00
1.349000000000000000e+03 0.000000000000000000e+00
1.350000000000000000e+03 0.000000000000000000e+00
1.351000000000000000e+03 0.000000000000000000e+00
1.352000000000000000e+03 0.000000000000000000e+00
1.353000000000000000e+03 0.000000000000000000e+00
1.354000000000000000e+03 0.000000000000000000e+00
1.355000000000000000e+03 0.000000000000000000e+00
1.356000000000000000e+03 0.000000000000000000e+00
1.357000000000000000e+03 0.000000000000000000e+00
1.358000000000000000e+03 0.000000000000000000e+00
1.359000000000000000e+03 0.000000000000000000e+00
1.360000000000000000e+03 0.000000000000000000e+00
1.361000000000000000e+03 0.000000000000000000e+00
1.362000000000000000e+03 0.000000000000000000e+00
1.363000000000000000e+03 0.000000000000000000e+00
1.364000000000000000e+03 0.000000000000000000e+00
1.365000000000000000e+03 0.000000000000000000e+00
1.366000000000000000e+03 0.000000000000000000e+00
1.367000000000000000e+03 0.000000000000000000e+00
1.368000000000000000e+03 0.000000000000000000e+00
1.369000000000000000e+03 0.000000000000000000e+00
1.370000000000000000e+03 0.000000000000000000e+00
1.371000000000000000e+03 0.000000000000000000e+00
1.372000000000000000e+03 0.000000000000000000e+00
1.373000000000000000e+03 0.000000000000000000e+00
1.374000000000000000e+03 0.000000000000000000e+00
1.375000000000000000e+03 0.000000000000000000e+00
1.376000000000000000e+03 0.000000000000000000e+00
1.377000000000000000e+03 0.000000000000000000e+00
1.378000000000000000e+03 0.000000000000000000e+00
1.379000000000000000e+03 0.000000000000000000e+00
1.380000000000000000e+03 0.000000000000000000e+00
1.381000000000000000e+03 0.000000000000000000e+00
1.382000000000000000e+03 0.000000000000000000e+00
1.383000000000000000e+03 0.000000000000000000e+00
1.384000000000000000e+03 0.000000000000000000e+00
1.385000000000000000e+03 0.000000000000000000e+00
1.386000000000000000e+03 0.000000000000000000e+00
1.387000000000000000e+03 0.000000000000000000e+00
1.388000000000000000e+03 0.000000000000000000e+00
1.389000000000000000e+03 0.000000000000000000e+00
1.390000000000000000e+03 0.000000000000000000e+00
1.391000000000000000e+03 0.000000000000000000e+00
1.392000000000000000e+03 0.000000000000000000e+00
1.393000000000000000e+03 0.000000000000000000e+00
1.394000000000000000e+03 0.000000000000000000e+00
1.395000000000000000e+03 0.000000000000000000e+00
1.396000000000000000e+03 0.000000000000000000e+00
1.397000000000000000e+03 0.000000000000000000e+00
1.398000000000000000e+03 0.000000000000000000e+00
1.399000000000000000e+03 0.000000000000000000e+00
1.400000000000000000e+03 0.000000000000000000e+00
1.401000000000000000e+03 0.000000000000000000e+00
1.402000000000000000e+03 0.000000000000000000e+00
1.403000000000000000e+03 0.000000000000000000e+00
1.404000000000000000e+03 0.000000000000000000e+00
1.405000000000000000e+03 0.000000000000000000e+00
1.406000000000000000e+03 0.000000000000000000e+00
1.407000000000000000e+03 0.000000000000000000e+00
1.408000000000000000e+03 0.000000000000000000e+00
1.409000000000000000e+03 0.000000000000000000e+00
1.410000000000000000e+03 0.000000000000000000e+00
1.411000000000000000e+03 0.000000000000000000e+00
1.412000000000000000e+03 0.000000000000000000e+00
1.413000000000000000e+03 0.000000000000000000e+00
1.414000000000000000e+03 0.000000000000000000e+00
1.415000000000000000e+03 0.000000000000000000e+00
1.416000000000000000e+03 0.000000000000000000e+00
1.417000000000000000e+03 0.000000000000000000e+00
1.418000000000000000e+03 0.000000000000000000e+00
1.419000000000000000e+03 0.000000000000000000e+00
1.420000000000000000e+03 0.000000000000000000e+00
1.421000000000000000e+03 0.000000000000000000e+00
1.422000000000000000e+03 0.000000000000000000e+00
1.423000000000000000e+03 0.000000000000000000e+00
1.424000000000000000e+03 0.000000000000000000e+00
1.425000000000000000e+03 0.000000000000000000e+00
1.426000000000000000e+03 0.000000000000000000e+00
1.427000000000000000e+03 0.000000000000000000e+00
1.428000000000000000e+03 0.000000000000000000e+00
1.429000000000000000e+03 0.000000000000000000e+00
1.430000000000000000e+03 0.000000000000000000e+00
1.431000000000000000e+03 0.000000000000000000e+00
1.432000000000000000e+03 0.000000000000000000e+00
1.433000000000000000e+03 0.000000000000000000e+00
1.434000000000000000e+03 0.000000000000000000e+00
1.435000000000000000e+03 0.000000000000000000e+00
1.436000000000000000e+03 0.000000000000000000e+00
1.437000000000000000e+03 0.000000000000000000e+00
1.438000000000000000e+03 0.000000000000000000e+00
1.439000000000000000e+03 0.000000000000000000e+00
1.440000000000000000e+03 0.000000000000000000e+00
1.441000000000000000e+03 0.000000000000000000e+00
1.442000000000000000e+03 0.000000000000000000e+00
1.443000000000000000e+03 0.000000000000000000e+00
1.444000000000000000e+03 0.000000000000000000e+00
1.445000000000000000e+03 0.000000000000000000e+00
1.446000000000000000e+03 0.000000000000000000e+00
1.447000000000000000e+03 0.000000000000000000e+00
1.448000000000000000e+03 0.000000000000000000e+00
1.449000000000000000e+03 0.000000000000000000e+00
1.450000000000000000e+03 0.000000000000000000e+00
1.451000000000000000e+03 0.000000000000000000e+00
1.452000000000000000e+03 0.000000000000000000e+00
1.453000000000000000e+03 0.000000000000000000e+00
1.454000000000000000e+03 0.000000000000000000e+00
1.455000000000000000e+03 0.000000000000000000e+00
1.456000000000000000e+03 0.000000000000000000e+00
1.457000000000000000e+03 0.000000000000000000e+00
1.458000000000000000e+03 0.000000000000000000e+00
1.459000000000000000e+03 0.000000000000000000e+00
1.460000000000000000e+03 0.000000000000000000e+00
1.461000000000000000e+03 0.000000000000000000e+00
1.462000000000000000e+03 0.000000000000000000e+00
1.463000000000000000e+03 0.000000000000000000e+00
1.464000000000000000e+03 0.000000000000000000e+00
1.465000000000000000e+03 0.000000000000000000e+00
1.466000000000000000e+03 0.000000000000000000e+00
1.467000000000000000e+03 0.000000000000000000e+00
1.468000000000000000e+03 0.000000000000000000e+00
1.469000000000000000e+03 0.000000000000000000e+00
1.470000000000000000e+03 0.000000000000000000e+00
1.471000000000000000e+03 0.000000000000000000e+00
1.472000000000000000e+03 0.000000000000000000e+00
1.473000000000000000e+03 0.000000000000000000e+00
1.474000000000000000e+03 0.000000000000000000e+00
1.475000000000000000e+03 0.000000000000000000e+00
1.476000000000000000e+03 0.000000000000000000e+00
1.477000000000000000e+03 0.000000000000000000e+00
1.478000000000000000e+03 0.000000000000000000e+00
1.479000000000000000e+03 0.000000000000000000e+00
1.480000000000000000e+03 0.000000000000000000e+00
1.481000000000000000e+03 0.000000000000000000e+00
1.482000000000000000e+03 0.000000000000000000e+00
1.483000000000000000e+03 0.000000000000000000e+00
1.484000000000000000e+03 0.000000000000000000e+00
1.485000000000000000e+03 0.000000000000000000e+00
1.486000000000000000e+03 0.000000000000000000e+00
1.487000000000000000e+03 0.000000000000000000e+00
1.488000000000000000e+03 0.000000000000000000e+00
1.489000000000000000e+03 0.000000000000000000e+00
1.490000000000000000e+03 0.000000000000000000e+00
1.491000000000000000e+03 0.000000000000000000e+00
1.492000000000000000e+03 0.000000000000000000e+00
1.493000000000000000e+03 0.000000000000000000e+00
1.494000000000000000e+03 0.000000000000000000e+00
1.495000000000000000e+03 0.000000000000000000e+00
1.496000000000000000e+03 0.000000000000000000e+00
1.497000000000000000e+03 0.000000000000000000e+00
1.498000000000000000e+03 0.000000000000000000e+00
1.499000000000000000e+03 0.000000000000000000e+00
1.500000000000000000e+03 0.000000000000000000e+00
