1.010000000000000000e+02 0.000000000000000000e+00
1.020000000000000000e+02 0.000000000000000000e+00
1.030000000000000000e+02 0.000000000000000000e+00
1.040000000000000000e+02 0.000000000000000000e+00
1.050000000000000000e+02 0.000000000000000000e+00
1.060000000000000000e+02 0.000000000000000000e+00
1.070000000000000000e+02 0.000000000000000000e+00
1.080000000000000000e+02 0.000000000000000000e+00
1.090000000000000000e+02 0.000000000000000000e+00
1.100000000000000000e+02 0.000000000000000000e+00
1.110000000000000000e+02 0.000000000000000000e+00
1.120000000000000000e+02 0.000000000000000000e+00
1.130000000000000000e+02 0.000000000000000000e+00
1.140000000000000000e+02 0.000000000000000000e+00
1.150000000000000000e+02 0.000000000000000000e+00
1.160000000000000000e+02 0.000000000000000000e+00
1.170000000000000000e+02 0.000000000000000000e+00
1.180000000000000000e+02 0.000000000000000000e+00
1.190000000000000000e+02 0.000000000000000000e+00
1.200000000000000000e+02 0.000000000000000000e+00
1.210000000000000000e+02 0.000000000000000000e+00
1.220000000000000000e+02 0.000000000000000000e+00
1.230000000000000000e+02 0.000000000000000000e+00
1.240000000000000000e+02 0.000000000000000000e+00
1.250000000000000000e+02 0.000000000000000000e+00
1.260000000000000000e+02 0.000000000000000000e+00
1.270000000000000000e+02 0.000000000000000000e+00
1.280000000000000000e+02 0.000000000000000000e+00
1.290000000000000000e+02 0.000000000000000000e+00
1.300000000000000000e+02 0.000000000000000000e+00
1.310000000000000000e+02 0.000000000000000000e+00
1.320000000000000000e+02 0.000000000000000000e+00
1.330000000000000000e+02 0.000000000000000000e+00
1.340000000000000000e+02 0.000000000000000000e+00
1.350000000000000000e+02 0.000000000000000000e+00
1.360000000000000000e+02 0.000000000000000000e+00
1.370000000000000000e+02 0.000000000000000000e+00
1.380000000000000000e+02 0.000000000000000000e+00
1.390000000000000000e+02 0.000000000000000000e+00
1.400000000000000000e+02 0.000000000000000000e+00
1.410000000000000000e+02 0.000000000000000000e+00
1.420000000000000000e+02 0.000000000000000000e+00
1.430000000000000000e+02 0.000000000000000000e+00
1.440000000000000000e+02 0.000000000000000000e+00
1.450000000000000000e+02 0.000000000000000000e+00
1.460000000000000000e+02 0.000000000000000000e+00
1.470000000000000000e+02 0.000000000000000000e+00
1.480000000000000000e+02 0.000000000000000000e+00
1.490000000000000000e+02 0.000000000000000000e+00
1.500000000000000000e+02 0.000000000000000000e+00
1.510000000000000000e+02 0.000000000000000000e+00
1.520000000000000000e+02 0.000000000000000000e+00
1.530000000000000000e+02 0.000000000000000000e+00
1.540000000000000000e+02 0.000000000000000000e+00
1.550000000000000000e+02 0.000000000000000000e+00
1.560000000000000000e+02 0.000000000000000000e+00
1.570000000000000000e+02 0.000000000000000000e+00
1.580000000000000000e+02 0.000000000000000000e+00
1.590000000000000000e+02 0.000000000000000000e+00
1.600000000000000000e+02 0.000000000000000000e+00
1.610000000000000000e+02 0.000000000000000000e+00
1.620000000000000000e+02 0.000000000000000000e+00
1.630000000000000000e+02 0.000000000000000000e+00
1.640000000000000000e+02 0.000000000000000000e+00
1.650000000000000000e+02 0.000000000000000000e+00
1.660000000000000000e+02 0.000000000000000000e+00
1.670000000000000000e+02 0.000000000000000000e+00
1.680000000000000000e+02 8.934042148931782557e-02
1.690000000000000000e+02 7.656785565235396662e-01
1.700000000000000000e+02 1.806278115743609192e+00
1.710000000000000000e+02 3.740715446173011660e+00
1.720000000000000000e+02 3.224042699439943593e+00
1.730000000000000000e+02 1.183001673994197089e+00
1.740000000000000000e+02 2.806714028209944534e-01
1.750000000000000000e+02 1.157622897324224187e+00
1.760000000000000000e+02 2.205016618000832818e+00
1.770000000000000000e+02 2.100443215722879842e+00
1.780000000000000000e+02 1.833752563990870721e+00
1.790000000000000000e+02 2.193508824346743769e+00
1.800000000000000000e+02 1.774189559427501450e+00
1.810000000000000000e+02 2.255993976975733339e+00
1.820000000000000000e+02 2.503252752799670855e+00
1.830000000000000000e+02 1.892602835511309367e+00
1.840000000000000000e+02 1.907005243310516684e+00
1.850000000000000000e+02 8.345604250155556070e-01
1.860000000000000000e+02 8.005154961626171906e-01
1.870000000000000000e+02 2.204378974279180170e+00
1.880000000000000000e+02 3.261863125077774317e+00
1.890000000000000000e+02 1.338803811449897463e+00
1.900000000000000000e+02 1.278569140012444816e+00
1.910000000000000000e+02 2.246326741962249240e+00
1.920000000000000000e+02 2.159659099564406048e+00
1.930000000000000000e+02 3.001018325451154656e+00
1.940000000000000000e+02 1.467967991288116059e+00
1.950000000000000000e+02 1.983680811035049285e-01
1.960000000000000000e+02 5.556627360796975723e-02
1.970000000000000000e+02 9.953238137315995049e-01
1.980000000000000000e+02 1.881508192283760650e+00
1.990000000000000000e+02 1.999769051016176524e+00
2.000000000000000000e+02 2.347916565235407926e+00
2.010000000000000000e+02 3.635746297863509557e+00
2.020000000000000000e+02 2.431177525922850080e+00
2.030000000000000000e+02 3.016437132545110256e+00
2.040000000000000000e+02 3.424091944202459104e+00
2.050000000000000000e+02 2.596433364579012526e+00
2.060000000000000000e+02 3.955033830533092765e+00
2.070000000000000000e+02 4.950779280647168434e+00
2.080000000000000000e+02 5.444957675031105282e+00
2.090000000000000000e+02 6.350775937564833384e+00
2.100000000000000000e+02 8.526097500933435214e+00
2.110000000000000000e+02 1.001374203525508122e+01
2.120000000000000000e+02 1.134302298693216571e+01
2.130000000000000000e+02 1.153124077369842482e+01
2.140000000000000000e+02 1.030223715470759593e+01
2.150000000000000000e+02 1.133134918066791741e+01
2.160000000000000000e+02 1.284485374611076125e+01
2.170000000000000000e+02 1.482350295520528860e+01
2.180000000000000000e+02 1.633887021157436692e+01
2.190000000000000000e+02 1.651120136278780848e+01
2.200000000000000000e+02 1.823791145997511265e+01
2.210000000000000000e+02 2.011916597386433025e+01
2.220000000000000000e+02 2.105705274216967027e+01
2.230000000000000000e+02 2.106093062214848644e+01
2.240000000000000000e+02 2.192748013690105680e+01
2.250000000000000000e+02 2.290568131922837125e+01
2.260000000000000000e+02 2.320419156191661614e+01
2.270000000000000000e+02 2.275237677660235747e+01
2.280000000000000000e+02 2.207497109728272022e+01
2.290000000000000000e+02 2.117900394938809683e+01
2.300000000000000000e+02 2.065789037958930052e+01
2.310000000000000000e+02 1.974726439535363554e+01
2.320000000000000000e+02 1.766334172370876487e+01
2.330000000000000000e+02 1.527540191868907193e+01
2.340000000000000000e+02 1.278072878033604631e+01
2.350000000000000000e+02 1.068376880522712113e+01
2.360000000000000000e+02 9.202130416096235166e+00
2.370000000000000000e+02 8.235334511926984291e+00
2.380000000000000000e+02 8.123410727027588152e+00
2.390000000000000000e+02 6.570981199751114943e+00
2.400000000000000000e+02 4.807994892368310680e+00
2.410000000000000000e+02 4.288467238124867187e+00
2.420000000000000000e+02 2.419832700062231723e+00
2.430000000000000000e+02 2.416652256739933780e+00
2.440000000000000000e+02 2.936281107031737392e+00
2.450000000000000000e+02 2.922686117403027417e+00
2.460000000000000000e+02 2.527041362505185962e+00
2.470000000000000000e+02 1.272834953744047759e+00
2.480000000000000000e+02 1.064901510889860514e+00
2.490000000000000000e+02 1.444449282870179374e+00
2.500000000000000000e+02 1.273368812072184442e+00
2.510000000000000000e+02 3.274596374196271364e-01
2.520000000000000000e+02 1.201250898175053816e+00
2.530000000000000000e+02 1.903581200995642986e+00
2.540000000000000000e+02 1.516329594482469290e+00
2.550000000000000000e+02 5.848834407799222701e-01
2.560000000000000000e+02 9.686349462767034346e-01
2.570000000000000000e+02 5.094161439236917222e-01
2.580000000000000000e+02 8.747507680273769459e-02
2.590000000000000000e+02 8.320529253889198673e-02
2.600000000000000000e+02 1.114734204589377664e-01
2.610000000000000000e+02 1.495516360153525959e-01
2.620000000000000000e+02 5.468563995021868962e-01
2.630000000000000000e+02 1.348030707175449594e+00
2.640000000000000000e+02 5.054128825969506078e-01
2.650000000000000000e+02 9.300796984028405490e-01
2.660000000000000000e+02 4.599465782033373973e-02
2.670000000000000000e+02 1.094910309271941440e+00
2.680000000000000000e+02 7.358698367558456077e-01
2.690000000000000000e+02 2.052453918274237399e-01
2.700000000000000000e+02 4.003120518564559083e-01
2.710000000000000000e+02 3.846484592408309644e-01
2.720000000000000000e+02 1.401967120920953325e-01
2.730000000000000000e+02 3.581901115951075520e-01
2.740000000000000000e+02 4.594347197676721395e-01
2.750000000000000000e+02 1.621550477527454182e-01
2.760000000000000000e+02 3.346634660858742172e-01
2.770000000000000000e+02 1.423075387805853020e-01
2.780000000000000000e+02 8.210569048392507563e-02
2.790000000000000000e+02 6.365795741547403130e-01
2.800000000000000000e+02 2.862639670192903552e-01
2.810000000000000000e+02 1.019430926571281093e+00
2.820000000000000000e+02 1.944867885293503518e+00
2.830000000000000000e+02 1.260021024061416473e+00
2.840000000000000000e+02 5.415498556316143963e-01
2.850000000000000000e+02 7.446246820162013558e-01
2.860000000000000000e+02 1.204295551337898118e+00
2.870000000000000000e+02 7.510722136486324141e-01
2.880000000000000000e+02 8.868674603697576653e-02
2.890000000000000000e+02 2.409283121254900129e-01
2.900000000000000000e+02 2.424294971997554005e-01
2.910000000000000000e+02 5.647752154173212302e-01
2.920000000000000000e+02 2.976178540136910300e+00
2.930000000000000000e+02 2.101837223397636123e+00
2.940000000000000000e+02 2.145799228121107571e+00
2.950000000000000000e+02 2.222073593030472693e+00
2.960000000000000000e+02 1.258035237917449978e+00
2.970000000000000000e+02 2.486569617171306312e+00
2.980000000000000000e+02 2.515261542418575136e+00
2.990000000000000000e+02 2.820842805849424817e+00
3.000000000000000000e+02 3.129864112401498755e+00
3.010000000000000000e+02 2.271170912466299097e+00
3.020000000000000000e+02 2.973314080896104272e+00
3.030000000000000000e+02 3.174668574450436154e+00
3.040000000000000000e+02 3.445732877411313844e+00
3.050000000000000000e+02 4.045375681808744517e+00
3.060000000000000000e+02 4.077143245592197651e+00
3.070000000000000000e+02 4.972588703381036979e+00
3.080000000000000000e+02 4.775684419415071602e+00
3.090000000000000000e+02 4.515559276913506892e+00
3.100000000000000000e+02 5.362553799419206513e+00
3.110000000000000000e+02 6.409317964115321509e+00
3.120000000000000000e+02 7.698947074258470025e+00
3.130000000000000000e+02 8.616682896701934880e+00
3.140000000000000000e+02 9.496949432482891140e+00
3.150000000000000000e+02 1.056842512341838969e+01
3.160000000000000000e+02 1.024994597801286211e+01
3.170000000000000000e+02 1.338436283758561451e+01
3.180000000000000000e+02 1.689735516490347678e+01
3.190000000000000000e+02 1.918436917651945350e+01
3.200000000000000000e+02 2.126364854624638312e+01
3.210000000000000000e+02 2.191534696535986271e+01
3.220000000000000000e+02 2.427532038581199814e+01
3.230000000000000000e+02 2.752746790543336175e+01
3.240000000000000000e+02 3.006593588259696759e+01
3.250000000000000000e+02 3.099788246629326949e+01
3.260000000000000000e+02 3.595835091248440563e+01
3.270000000000000000e+02 3.937482135656502891e+01
3.280000000000000000e+02 4.283174032565855072e+01
3.290000000000000000e+02 4.850926875570306862e+01
3.300000000000000000e+02 5.244013796307823583e+01
3.310000000000000000e+02 5.702928587429995844e+01
3.320000000000000000e+02 6.205795114060566675e+01
3.330000000000000000e+02 6.745337104127786176e+01
3.340000000000000000e+02 7.306628759178596511e+01
3.350000000000000000e+02 7.462853681393896466e+01
3.360000000000000000e+02 7.749000962663355097e+01
3.370000000000000000e+02 7.892351537647789428e+01
3.380000000000000000e+02 7.799386209707527939e+01
3.390000000000000000e+02 7.604565410703182238e+01
3.400000000000000000e+02 6.968990892345983923e+01
3.410000000000000000e+02 6.207573459863080245e+01
3.420000000000000000e+02 5.403432048537658972e+01
3.430000000000000000e+02 4.623198677867675599e+01
3.440000000000000000e+02 3.991381221530817669e+01
3.450000000000000000e+02 3.348595837585565960e+01
3.460000000000000000e+02 2.845537032358436136e+01
3.470000000000000000e+02 2.401464885939451221e+01
3.480000000000000000e+02 1.911483429786349220e+01
3.490000000000000000e+02 1.457396534536403543e+01
3.500000000000000000e+02 1.311932082123600196e+01
3.510000000000000000e+02 1.214921834059321881e+01
3.520000000000000000e+02 1.062954453640322505e+01
3.530000000000000000e+02 9.303968248444617117e+00
3.540000000000000000e+02 8.734720291848152129e+00
3.550000000000000000e+02 7.792568122381230644e+00
3.560000000000000000e+02 6.927430681874749752e+00
3.570000000000000000e+02 6.151314610454287291e+00
3.580000000000000000e+02 5.505625086496569232e+00
3.590000000000000000e+02 6.166268458316045198e+00
3.600000000000000000e+02 4.709289336444753005e+00
3.610000000000000000e+02 3.463150823688037949e+00
3.620000000000000000e+02 3.320413373366520648e+00
3.630000000000000000e+02 3.510989153702548382e+00
3.640000000000000000e+02 3.776931579132961403e+00
3.650000000000000000e+02 3.027381894420239306e+00
3.660000000000000000e+02 2.365746333748185215e+00
3.670000000000000000e+02 2.312775180460484581e+00
3.680000000000000000e+02 2.372159006845051987e+00
3.690000000000000000e+02 1.642124286040236303e+00
3.700000000000000000e+02 2.520446350964534954e+00
3.710000000000000000e+02 3.273858345986312202e+00
3.720000000000000000e+02 2.926287744243924571e+00
3.730000000000000000e+02 2.237350745281051712e+00
3.740000000000000000e+02 5.646075855631811358e-01
3.750000000000000000e+02 5.682345067413618889e-01
3.760000000000000000e+02 1.344674816258822903e+00
3.770000000000000000e+02 1.492710942128205209e+00
3.780000000000000000e+02 7.215975610869058698e-01
3.790000000000000000e+02 1.911821808378241450e+00
3.800000000000000000e+02 2.676357399502177437e+00
3.810000000000000000e+02 2.268000724953342484e+00
3.820000000000000000e+02 1.527957753214434611e+00
3.830000000000000000e+02 1.666133320058079237e+00
3.840000000000000000e+02 1.402306350964532600e+00
3.850000000000000000e+02 5.419842005391839468e-01
3.860000000000000000e+02 8.269596004978336801e-01
3.870000000000000000e+02 1.890570914333118857e+00
3.880000000000000000e+02 1.101586420232431723e-01
3.890000000000000000e+02 6.393708504460679509e-02
3.900000000000000000e+02 3.903515339141259699e-01
3.910000000000000000e+02 4.600057367765987282e-01
3.920000000000000000e+02 6.590908382078493055e-01
3.930000000000000000e+02 9.328626191661505418e-01
3.940000000000000000e+02 6.744219286455122031e-01
3.950000000000000000e+02 1.538885753578061344e+00
3.960000000000000000e+02 2.276481504874513284e+00
3.970000000000000000e+02 1.845954974279198302e+00
3.980000000000000000e+02 1.643478627255758440e+00
3.990000000000000000e+02 1.492847556316120095e+00
4.000000000000000000e+02 8.188254113254499478e-01
4.010000000000000000e+02 7.161838929682583510e-01
4.020000000000000000e+02 1.697907238282869047e+00
4.030000000000000000e+02 1.770330935283138452e+00
4.040000000000000000e+02 2.293468030491599752e+00
4.050000000000000000e+02 1.369278912899196454e+00
4.060000000000000000e+02 2.188471138767910107e-01
4.070000000000000000e+02 2.225242922630100151e-01
4.080000000000000000e+02 4.344833981750312879e-01
4.090000000000000000e+02 8.277572526446912438e-01
4.100000000000000000e+02 2.898714026135215116e-01
4.110000000000000000e+02 3.853412729158077754e-01
4.120000000000000000e+02 5.759882132337618144e-01
4.130000000000000000e+02 2.151562937149951726e-01
4.140000000000000000e+02 4.661978400746693563e-01
4.150000000000000000e+02 6.580612476664646771e-01
4.160000000000000000e+02 1.587811039203491092e-01
4.170000000000000000e+02 2.291832605268614154e-01
4.180000000000000000e+02 8.135266446795249573e-01
4.190000000000000000e+02 1.006497180253059565e+00
4.200000000000000000e+02 1.408127054553003576e+00
4.210000000000000000e+02 1.210250322547182122e+00
4.220000000000000000e+02 2.342753677660237566e-01
4.230000000000000000e+02 5.807029570628594595e-01
4.240000000000000000e+02 1.137843942957897481e+00
4.250000000000000000e+02 3.336338898568638189e-01
4.260000000000000000e+02 2.546378344741533906e-01
4.270000000000000000e+02 2.069060977598033979e+00
4.280000000000000000e+02 5.289985487349624371e-01
4.290000000000000000e+02 9.900098450528838079e-01
4.300000000000000000e+02 1.038686060360934027e+00
4.310000000000000000e+02 4.520319477395143837e-01
4.320000000000000000e+02 3.058979616428101483e-02
4.330000000000000000e+02 8.114052725305841152e-02
4.340000000000000000e+02 5.096006793695567055e-02
4.350000000000000000e+02 3.611646353453624725e-01
4.360000000000000000e+02 5.153273553204742452e-01
4.370000000000000000e+02 1.368311275404376082e-01
4.380000000000000000e+02 6.135285706285018570e-01
4.390000000000000000e+02 3.185909657747356127e-01
4.400000000000000000e+02 1.705848469514628374e-01
4.410000000000000000e+02 1.291775740510304304e+00
4.420000000000000000e+02 2.820645119062422435e+00
4.430000000000000000e+02 1.390385918274231747e+00
4.440000000000000000e+02 9.609031223812494193e-01
4.450000000000000000e+02 1.311375853142510373e+00
4.460000000000000000e+02 1.567860995021780779e+00
4.470000000000000000e+02 1.685152645301793539e+00
4.480000000000000000e+02 2.016382230242691698e+00
4.490000000000000000e+02 1.855542451980922269e+00
4.500000000000000000e+02 5.388475861854646887e-01
4.510000000000000000e+02 6.923823501347924347e-01
4.520000000000000000e+02 1.444862528935905388e+00
4.530000000000000000e+02 6.022552103298128845e-01
4.540000000000000000e+02 2.986914629744881755e-01
4.550000000000000000e+02 7.963277654013742879e-01
4.560000000000000000e+02 1.694328676415682411e+00
4.570000000000000000e+02 1.908872891331397037e+00
4.580000000000000000e+02 1.466636327940277429e+00
4.590000000000000000e+02 2.799135941505920044e+00
4.600000000000000000e+02 2.910804723143912476e+00
4.610000000000000000e+02 1.019287097904936656e+00
4.620000000000000000e+02 1.888083235137854310e-01
4.630000000000000000e+02 6.139109800912423420e-01
4.640000000000000000e+02 1.155070675171118166e+00
4.650000000000000000e+02 9.254879958514783400e-01
4.660000000000000000e+02 1.293644604313558322e+00
4.670000000000000000e+02 1.467506613773080115e+00
4.680000000000000000e+02 1.103894067828247394e+00
4.690000000000000000e+02 1.279352197261978574e+00
4.700000000000000000e+02 1.396355297241238524e+00
4.710000000000000000e+02 6.488727313835425115e-01
4.720000000000000000e+02 1.674051136693673336e-01
4.730000000000000000e+02 2.507008368967007517e-01
4.740000000000000000e+02 4.951638599875518576e-01
4.750000000000000000e+02 1.037128781580589409e+00
4.760000000000000000e+02 8.502816119062386324e-01
4.770000000000000000e+02 7.597988699439959248e-01
4.780000000000000000e+02 1.439683220908555050e+00
4.790000000000000000e+02 2.110446361750670796e+00
4.800000000000000000e+02 4.275993370669741722e-01
4.810000000000000000e+02 5.476286231072233779e-01
4.820000000000000000e+02 1.353996536403254458e+00
4.830000000000000000e+02 1.824381957062849891e+00
4.840000000000000000e+02 1.819767813316739868e+00
4.850000000000000000e+02 1.590335908940067489e+00
4.860000000000000000e+02 4.945622682016184157e-01
4.870000000000000000e+02 6.027828892345934442e-01
4.880000000000000000e+02 1.278752679319636876e+00
4.890000000000000000e+02 1.301380972204931652e+00
4.900000000000000000e+02 7.600485193943170570e-01
4.910000000000000000e+02 2.310845361543243826e+00
4.920000000000000000e+02 1.221984515245755576e+00
4.930000000000000000e+02 7.644511456129516880e-01
4.940000000000000000e+02 1.353187458411117650e+00
4.950000000000000000e+02 7.270934123626008327e-01
4.960000000000000000e+02 1.765076810205369551e+00
4.970000000000000000e+02 2.478584426793865703e+00
4.980000000000000000e+02 2.989927795270683308e+00
4.990000000000000000e+02 2.470961029454488589e+00
5.000000000000000000e+02 1.199216034010786025e+00
5.010000000000000000e+02 1.803918652769126885e+00
5.020000000000000000e+02 1.942284885708363218e+00
5.030000000000000000e+02 1.235648086271266211e+00
5.040000000000000000e+02 8.829921441609607236e-01
5.050000000000000000e+02 1.164094640945860348e+00
5.060000000000000000e+02 1.162141706345914960e+00
5.070000000000000000e+02 1.430065920763328391e+00
5.080000000000000000e+02 2.082930623936940950e+00
5.090000000000000000e+02 1.067294326298447338e+00
5.100000000000000000e+02 1.978282293366764866e-01
5.110000000000000000e+02 1.885259013482681212e+00
5.120000000000000000e+02 1.632967290396188931e+00
5.130000000000000000e+02 2.332390516075493192e+00
5.140000000000000000e+02 1.376953173786823692e+00
5.150000000000000000e+02 1.015057819222148494e-01
5.160000000000000000e+02 5.384684287492269572e-01
5.170000000000000000e+02 1.384726258191635972e+00
5.180000000000000000e+02 1.545410155569383104e+00
5.190000000000000000e+02 1.564465375855632612e+00
5.200000000000000000e+02 9.744121302364706638e-01
5.210000000000000000e+02 2.955714812279401915e-01
5.220000000000000000e+02 5.034120116134278566e-01
5.230000000000000000e+02 3.194784351794094368e-01
5.240000000000000000e+02 9.734729141256730500e-01
5.250000000000000000e+02 1.239734175031091956e+00
5.260000000000000000e+02 5.608010630574811195e-01
5.270000000000000000e+02 1.714891233860265651e-01
5.280000000000000000e+02 5.050427498963035999e-01
5.290000000000000000e+02 4.853857510889852955e-01
5.300000000000000000e+02 7.801079759344534126e-02
5.310000000000000000e+02 5.393448926729789150e-01
5.320000000000000000e+02 1.316898403858121291e+00
5.330000000000000000e+02 8.363230634723000101e-01
5.340000000000000000e+02 1.235056689340542357e+00
5.350000000000000000e+02 1.086461763949370551e+00
5.360000000000000000e+02 1.379914681601348558e+00
5.370000000000000000e+02 1.581728634515708665e+00
5.380000000000000000e+02 1.141264729931585675e+00
5.390000000000000000e+02 2.130540286662529148e+00
5.400000000000000000e+02 1.874304024683685732e+00
5.410000000000000000e+02 2.124194884048932863e+00
5.420000000000000000e+02 1.222597936527761942e+00
5.430000000000000000e+02 4.365740336029828583e-01
5.440000000000000000e+02 2.443907391412563079e+00
5.450000000000000000e+02 1.682812229412994798e+00
5.460000000000000000e+02 5.463505926156251302e-01
5.470000000000000000e+02 7.538645936527830216e-01
5.480000000000000000e+02 2.250508347023466360e+00
5.490000000000000000e+02 3.593526211366870005e+00
5.500000000000000000e+02 1.795300362165502372e+00
5.510000000000000000e+02 1.402969070510164729e+00
5.520000000000000000e+02 1.828179886745501248e+00
5.530000000000000000e+02 1.535289455299700290e+00
5.540000000000000000e+02 3.349959983409239173e-01
5.550000000000000000e+02 3.945488749222089697e-01
5.560000000000000000e+02 2.538831382078443610e+00
5.570000000000000000e+02 2.303059457901248219e+00
5.580000000000000000e+02 1.310288966189593562e+00
5.590000000000000000e+02 1.140960060775771501e+00
5.600000000000000000e+02 1.395742029033603560e+00
5.610000000000000000e+02 1.692857883634103056e+00
5.620000000000000000e+02 1.455752246007050443e+00
5.630000000000000000e+02 2.245123787595949327e+00
5.640000000000000000e+02 1.946826210122357237e+00
5.650000000000000000e+02 9.239905108898583963e-01
5.660000000000000000e+02 1.257463423771008504e+00
5.670000000000000000e+02 1.517460291433313957e+00
5.680000000000000000e+02 1.560125348060568351e+00
5.690000000000000000e+02 1.448944397842768295e+00
5.700000000000000000e+02 1.574613611076542963e+00
5.710000000000000000e+02 1.650710405102676859e+00
5.720000000000000000e+02 1.064721502385392204e+00
5.730000000000000000e+02 1.302227673096869154e+00
5.740000000000000000e+02 1.584563394523956115e+00
5.750000000000000000e+02 2.040418893590544513e+00
5.760000000000000000e+02 1.854242576436419654e+00
5.770000000000000000e+02 5.199856195692736938e-01
5.780000000000000000e+02 3.261369680564193962e-01
5.790000000000000000e+02 2.271470360298688096e+00
5.800000000000000000e+02 9.851524019079372918e-01
5.810000000000000000e+02 5.699392876996485224e-01
5.820000000000000000e+02 1.823702866210328954e+00
5.830000000000000000e+02 1.413378771049358829e+00
5.840000000000000000e+02 1.283866332503629692e+00
5.850000000000000000e+02 1.437028785980916767e+00
5.860000000000000000e+02 1.325075588674555327e+00
5.870000000000000000e+02 1.250793446795267050e+00
5.880000000000000000e+02 1.461176160514304989e+00
5.890000000000000000e+02 1.690939831362784140e+00
5.900000000000000000e+02 1.339364781580591801e+00
5.910000000000000000e+02 1.282371896079650631e+00
5.920000000000000000e+02 1.597997159925324651e+00
5.930000000000000000e+02 1.509254594067626298e+00
5.940000000000000000e+02 5.885826077577085425e-01
5.950000000000000000e+02 1.547623057456949114e-01
5.960000000000000000e+02 5.255076670815316264e-01
5.970000000000000000e+02 8.457394318606106243e-01
5.980000000000000000e+02 1.043740077992132420e+00
5.990000000000000000e+02 1.063328148516889948e+00
6.000000000000000000e+02 6.530210271727937554e-01
6.010000000000000000e+02 8.785528892345828567e-01
6.020000000000000000e+02 1.588766490354659222e+00
6.030000000000000000e+02 1.640177844430619425e+00
6.040000000000000000e+02 1.789852940468763531e+00
6.050000000000000000e+02 1.836338454997958891e+00
6.060000000000000000e+02 1.072429341008084736e+00
6.070000000000000000e+02 1.654318398879909502e+00
6.080000000000000000e+02 4.120072778929873558e-01
6.090000000000000000e+02 6.269761671852582818e-01
6.100000000000000000e+02 1.974751973242064862e+00
6.110000000000000000e+02 1.259193969307313532e+00
6.120000000000000000e+02 2.990265108898383373e-01
6.130000000000000000e+02 8.978136036092279060e-01
6.140000000000000000e+02 2.406463457072250400e-01
6.150000000000000000e+02 9.289738985686707418e-01
6.160000000000000000e+02 1.532586906036035312e+00
6.170000000000000000e+02 8.491643652768969819e-01
6.180000000000000000e+02 1.463834941298441494e+00
6.190000000000000000e+02 2.416123056004994663e+00
6.200000000000000000e+02 1.015472131300593439e+00
6.210000000000000000e+02 3.877003194897157834e-02
6.220000000000000000e+02 2.431078745073576020e-01
6.230000000000000000e+02 3.336815347438277235e-01
6.240000000000000000e+02 2.671768880174197475e-02
6.250000000000000000e+02 3.745112553412166534e-01
6.260000000000000000e+02 1.152904545115143842e+00
6.270000000000000000e+02 1.534512852520225845e+00
6.280000000000000000e+02 1.339886407591778017e+00
6.290000000000000000e+02 1.088041662725574010e+00
6.300000000000000000e+02 1.440241184609017511e+00
6.310000000000000000e+02 1.665174339900437062e+00
6.320000000000000000e+02 6.732174768720680103e-01
6.330000000000000000e+02 4.685430080896362259e-01
6.340000000000000000e+02 7.135046719203325116e-01
6.350000000000000000e+02 2.210150197054483734e-01
6.360000000000000000e+02 9.162667801285795388e-01
6.370000000000000000e+02 2.107401359394431850e+00
6.380000000000000000e+02 1.972708790292472480e+00
6.390000000000000000e+02 1.046341165525828121e+00
6.400000000000000000e+02 2.833885060140928225e-01
6.410000000000000000e+02 9.270572785729389031e-02
6.420000000000000000e+02 6.683030808960895852e-01
6.430000000000000000e+02 5.879585793403770966e-01
6.440000000000000000e+02 3.988400412777428627e-01
6.450000000000000000e+02 8.056114891101567865e-01
6.460000000000000000e+02 7.738208286662060509e-01
6.470000000000000000e+02 8.772872495332741938e-01
6.480000000000000000e+02 1.435559105994728690e-01
6.490000000000000000e+02 1.791874718938045730e-01
6.500000000000000000e+02 1.140328726405322041e-01
6.510000000000000000e+02 8.684169695084190121e-02
6.520000000000000000e+02 1.921526409458602369e-01
6.530000000000000000e+02 6.891094366314033381e-01
6.540000000000000000e+02 3.825202227753603523e-01
6.550000000000000000e+02 1.101568197469416255e+00
6.560000000000000000e+02 1.337492135034224816e+00
6.570000000000000000e+02 1.564952964744921626e+00
6.580000000000000000e+02 1.687519367143732740e+00
6.590000000000000000e+02 1.368042286247671546e+00
6.600000000000000000e+02 1.764897920364992601e+00
6.610000000000000000e+02 1.233441810827617724e+00
6.620000000000000000e+02 7.488217629122573271e-01
6.630000000000000000e+02 1.276745939858990653e+00
6.640000000000000000e+02 1.283778276291205778e+00
6.650000000000000000e+02 1.085999483939009413e-01
6.660000000000000000e+02 1.175635490678160339e-01
6.670000000000000000e+02 4.596060268989793363e-02
6.680000000000000000e+02 4.140244940883631708e-01
6.690000000000000000e+02 5.094468311903749269e-01
6.700000000000000000e+02 7.506867398879956133e-01
6.710000000000000000e+02 1.476772598423563121e+00
6.720000000000000000e+02 1.312684289566481421e+00
6.730000000000000000e+02 1.507497076125285052e+00
6.740000000000000000e+02 1.171750948973245166e+00
6.750000000000000000e+02 1.512897311138774015e+00
6.760000000000000000e+02 1.725800444928440092e+00
6.770000000000000000e+02 1.015347741962253636e+00
6.780000000000000000e+02 6.559090093341615191e-01
6.790000000000000000e+02 1.108998226509026741e-01
6.800000000000000000e+02 1.857895586409389899e-01
6.810000000000000000e+02 8.383847898776182195e-01
6.820000000000000000e+02 1.094278304501141497e+00
6.830000000000000000e+02 1.049560251400120769e+00
6.840000000000000000e+02 1.407940600497822103e+00
6.850000000000000000e+02 1.002399956025721517e+00
6.860000000000000000e+02 2.374543768927613041e-01
6.870000000000000000e+02 1.063423865795458223e+00
6.880000000000000000e+02 1.963501669570602015e+00
6.890000000000000000e+02 1.001193400746734685e+00
6.900000000000000000e+02 6.564650514416128235e-01
6.910000000000000000e+02 6.035707490147185217e-01
6.920000000000000000e+02 1.491427577680973116e+00
6.930000000000000000e+02 4.241901225887074744e-01
6.940000000000000000e+02 8.313622148912699905e-02
6.950000000000000000e+02 1.136857440779905026e+00
6.960000000000000000e+02 2.107446149139172498e+00
6.970000000000000000e+02 8.820670715471033985e-01
6.980000000000000000e+02 1.126315469819543225e-01
6.990000000000000000e+02 4.545819309271905140e-01
7.000000000000000000e+02 5.079289240978971387e-01
7.010000000000000000e+02 7.228219661896059245e-01
7.020000000000000000e+02 1.790870209085263953e+00
7.030000000000000000e+02 2.149898993778524670e+00
7.040000000000000000e+02 1.358597920348495691e+00
7.050000000000000000e+02 9.068877861439611499e-01
7.060000000000000000e+02 3.887261343840930916e-01
7.070000000000000000e+02 6.874505376477579865e-01
7.080000000000000000e+02 1.674629793611262185e+00
7.090000000000000000e+02 1.470826109083379629e+00
7.100000000000000000e+02 6.355781868907076637e-01
7.110000000000000000e+02 1.765944150591125972e+00
7.120000000000000000e+02 2.490872071561918144e+00
7.130000000000000000e+02 1.578282153495146112e+00
7.140000000000000000e+02 7.324347452810451298e-01
7.150000000000000000e+02 1.473763951462344846e+00
7.160000000000000000e+02 9.335134038581259786e-01
7.170000000000000000e+02 2.962252422526461260e+00
7.180000000000000000e+02 3.277787014727206572e+00
7.190000000000000000e+02 1.550418532047222353e+00
7.200000000000000000e+02 5.995996309894302545e-01
7.210000000000000000e+02 1.811509986309834730e+00
7.220000000000000000e+02 3.166567150176270218e+00
7.230000000000000000e+02 2.067936238539662241e+00
7.240000000000000000e+02 2.628447255341182842e+00
7.250000000000000000e+02 3.249576262601112653e+00
7.260000000000000000e+02 3.202197929075089711e+00
7.270000000000000000e+02 2.870812613565652427e+00
7.280000000000000000e+02 3.148568351586783720e+00
7.290000000000000000e+02 4.388562209871418318e+00
7.300000000000000000e+02 4.002766022401988977e+00
7.310000000000000000e+02 4.103219125700062975e+00
7.320000000000000000e+02 4.359200115097469741e+00
7.330000000000000000e+02 4.571766667288955865e+00
7.340000000000000000e+02 5.015940317983829111e+00
7.350000000000000000e+02 5.203543724180847541e+00
7.360000000000000000e+02 5.564246692802342409e+00
7.370000000000000000e+02 6.091916372744269559e+00
7.380000000000000000e+02 6.974664779091440892e+00
7.390000000000000000e+02 7.134844850653424331e+00
7.400000000000000000e+02 6.665856248081319713e+00
7.410000000000000000e+02 6.759672472723508463e+00
7.420000000000000000e+02 6.430533179423359336e+00
7.430000000000000000e+02 6.651746390790286512e+00
7.440000000000000000e+02 6.653382639701306722e+00
7.450000000000000000e+02 5.926201444513591099e+00
7.460000000000000000e+02 5.249317416303671990e+00
7.470000000000000000e+02 4.961033342667485080e+00
7.480000000000000000e+02 4.154871078406956464e+00
7.490000000000000000e+02 3.992716867662305713e+00
7.500000000000000000e+02 2.305842208462891119e+00
7.510000000000000000e+02 1.874737545322560539e+00
7.520000000000000000e+02 2.172124856076321109e+00
7.530000000000000000e+02 2.257217899813313888e+00
7.540000000000000000e+02 2.199019161999583805e+00
7.550000000000000000e+02 2.375156221692271252e+00
7.560000000000000000e+02 3.362217368803137596e+00
7.570000000000000000e+02 2.371695293092669132e+00
7.580000000000000000e+02 1.425768470344247918e+00
7.590000000000000000e+02 9.669751553619655438e-01
7.600000000000000000e+02 5.847674461729924777e-01
7.610000000000000000e+02 9.871900844048138168e-01
7.620000000000000000e+02 1.224093500933420176e+00
7.630000000000000000e+02 2.457721029039633187e+00
7.640000000000000000e+02 1.382985545002008099e+00
7.650000000000000000e+02 1.463703213233811251e+00
7.660000000000000000e+02 2.089873390790264907e+00
7.670000000000000000e+02 5.877920504162617021e-01
7.680000000000000000e+02 4.413705131715259800e-01
7.690000000000000000e+02 9.508744658784601400e-01
7.700000000000000000e+02 8.862822891516100032e-01
7.710000000000000000e+02 6.725976913503458610e-01
7.720000000000000000e+02 1.226227701099365408e+00
7.730000000000000000e+02 1.666257770379591108e+00
7.740000000000000000e+02 1.262555326073437456e+00
7.750000000000000000e+02 7.255359819539495270e-01
7.760000000000000000e+02 9.542261182327338442e-01
7.770000000000000000e+02 9.735841680149340815e-01
7.780000000000000000e+02 4.836967975943584075e-01
7.790000000000000000e+02 7.643765422111814534e-01
7.800000000000000000e+02 1.483466181705036080e+00
7.810000000000000000e+02 8.233931136457883770e-01
7.820000000000000000e+02 4.758392526446771909e-01
7.830000000000000000e+02 4.074525030076749377e-01
7.840000000000000000e+02 5.711034508502710327e-01
7.850000000000000000e+02 1.121038171126329752e+00
7.860000000000000000e+02 1.092269990458411666e+00
7.870000000000000000e+02 6.661833425964353017e-01
7.880000000000000000e+02 1.198019716034019133e+00
7.890000000000000000e+02 7.699099296826403815e-01
7.900000000000000000e+02 1.207655301119872959e+00
7.910000000000000000e+02 1.706368224434764436e+00
7.920000000000000000e+02 1.507180424185854850e+00
7.930000000000000000e+02 6.054453342953657335e-01
7.940000000000000000e+02 1.389347006845060295e-01
7.950000000000000000e+02 2.725611497614631173e-01
7.960000000000000000e+02 6.024845197614621395e-02
7.970000000000000000e+02 3.544370350549638782e-01
7.980000000000000000e+02 7.517748898568724636e-01
7.990000000000000000e+02 8.763215799626633551e-01
8.000000000000000000e+02 7.988982937149987640e-01
8.010000000000000000e+02 6.192523086496610762e-01
8.020000000000000000e+02 6.392746876166759407e-01
8.030000000000000000e+02 1.232621604853755493e+00
8.040000000000000000e+02 1.447066203277326268e+00
8.050000000000000000e+02 1.499864412155154980e+00
8.060000000000000000e+02 1.276026255341218052e+00
8.070000000000000000e+02 1.317682960182470886e+00
8.080000000000000000e+02 1.497326830740485892e+00
8.090000000000000000e+02 2.050829228376015445e-01
8.100000000000000000e+02 7.861749041891368250e-01
8.110000000000000000e+02 2.429127185231342856e-01
8.120000000000000000e+02 8.378690074673096344e-01
8.130000000000000000e+02 8.039472482372667095e-01
8.140000000000000000e+02 1.298488081725740040e+00
8.150000000000000000e+02 2.268122332711074662e+00
8.160000000000000000e+02 2.725857320614022972e-01
8.170000000000000000e+02 2.017475314250147811e-01
8.180000000000000000e+02 1.309876872640491907e+00
8.190000000000000000e+02 1.100547899398472307e+00
8.200000000000000000e+02 1.006994164281262982e+00
8.210000000000000000e+02 1.227879998755449398e+00
8.220000000000000000e+02 7.459267056627172376e-01
8.230000000000000000e+02 2.501049234598681781e-01
8.240000000000000000e+02 1.245217853972206745e+00
8.250000000000000000e+02 4.712233714997227096e-01
8.260000000000000000e+02 1.990117678904813614e-01
8.270000000000000000e+02 8.653226789048484857e-01
8.280000000000000000e+02 1.399696025305985359e+00
8.290000000000000000e+02 7.125476921800475427e-01
8.300000000000000000e+02 1.451166713130079389e+00
8.310000000000000000e+02 1.111483983198525705e+00
8.320000000000000000e+02 1.325820991495215984e-01
8.330000000000000000e+02 1.741387599336306380e+00
8.340000000000000000e+02 1.731105500726022983e+00
8.350000000000000000e+02 8.419185463596623453e-01
8.360000000000000000e+02 1.549942949191196018e+00
8.370000000000000000e+02 2.093960478323999119e+00
8.380000000000000000e+02 1.924847077369840287e+00
8.390000000000000000e+02 2.082479964330154587e+00
8.400000000000000000e+02 1.590342090852501000e+00
8.410000000000000000e+02 6.380740597386214130e-01
8.420000000000000000e+02 1.378697831190258460e+00
8.430000000000000000e+02 2.394409013067812175e+00
8.440000000000000000e+02 1.023186035469784150e+00
8.450000000000000000e+02 1.522420366238052658e+00
8.460000000000000000e+02 9.756100765401702901e-01
8.470000000000000000e+02 3.457448535573667270e-01
8.480000000000000000e+02 4.080663362372816128e-01
8.490000000000000000e+02 1.213580698195365626e+00
8.500000000000000000e+02 2.152526835303859354e+00
8.510000000000000000e+02 2.378151597179010146e+00
8.520000000000000000e+02 1.703976427919521086e+00
8.530000000000000000e+02 1.328780949595523175e+00
8.540000000000000000e+02 3.205455289359055437e-01
8.550000000000000000e+02 1.469516099771880580e+00
8.560000000000000000e+02 2.414278294544686343e+00
8.570000000000000000e+02 2.159788458825981916e+00
8.580000000000000000e+02 2.286586391412557706e+00
8.590000000000000000e+02 1.166012776648672533e+00
8.600000000000000000e+02 7.549515017631154290e-01
8.610000000000000000e+02 8.019645888819946222e-01
8.620000000000000000e+02 1.721527485690619752e+00
8.630000000000000000e+02 2.128607252022407526e+00
8.640000000000000000e+02 2.097287896287069575e+00
8.650000000000000000e+02 1.915430583990018309e+00
8.660000000000000000e+02 1.452853179215928492e+00
8.670000000000000000e+02 1.904396522713127426e+00
8.680000000000000000e+02 1.706769134798837850e+00
8.690000000000000000e+02 2.701523724745916510e+00
8.700000000000000000e+02 2.164787166562937681e+00
8.710000000000000000e+02 1.975784249274182169e+00
8.720000000000000000e+02 1.799416779713720826e+00
8.730000000000000000e+02 7.318068043974660375e-01
8.740000000000000000e+02 2.222375041485176173e+00
8.750000000000000000e+02 1.997419449284358439e+00
8.760000000000000000e+02 1.157852884256367565e+00
8.770000000000000000e+02 1.286734418792794266e+00
8.780000000000000000e+02 1.154925828458810200e+00
8.790000000000000000e+02 9.935519298900692409e-01
8.800000000000000000e+02 1.245509954366312844e+00
8.810000000000000000e+02 1.416634353453632311e+00
8.820000000000000000e+02 1.804961485791330311e+00
8.830000000000000000e+02 4.851484258452529730e-01
8.840000000000000000e+02 4.303231066168866081e-01
8.850000000000000000e+02 8.671967915370295543e-01
8.860000000000000000e+02 1.404470504044787349e+00
8.870000000000000000e+02 1.603919056627277628e+00
8.880000000000000000e+02 2.321081602447101488e+00
8.890000000000000000e+02 5.789237956855310951e-01
8.900000000000000000e+02 4.697181773491009849e-01
8.910000000000000000e+02 1.048770615927006045e+00
8.920000000000000000e+02 1.270139487243310494e+00
8.930000000000000000e+02 1.094222381041276559e+00
8.940000000000000000e+02 1.887845055163851260e+00
8.950000000000000000e+02 2.472618846919717228e+00
8.960000000000000000e+02 1.290877317983819328e+00
8.970000000000000000e+02 6.444007805889625518e-01
8.980000000000000000e+02 8.600916407384353590e-01
8.990000000000000000e+02 1.202514347230864145e+00
9.000000000000000000e+02 1.389336541381454460e+00
9.010000000000000000e+02 8.159545476042289192e-01
9.020000000000000000e+02 5.947923399709555969e-01
9.030000000000000000e+02 7.477768794855729206e-01
9.040000000000000000e+02 1.110644772868694813e-01
9.050000000000000000e+02 8.980664146442596252e-01
9.060000000000000000e+02 1.050086477494296622e+00
9.070000000000000000e+02 1.566141639079025705e+00
9.080000000000000000e+02 2.682423436216535784e+00
9.090000000000000000e+02 2.518013853142500480e+00
9.100000000000000000e+02 1.731800109728275139e+00
9.110000000000000000e+02 1.375686143746120971e+00
9.120000000000000000e+02 5.909372173822879937e-01
9.130000000000000000e+02 3.202537840696914606e-01
9.140000000000000000e+02 8.476557424305133370e-01
9.150000000000000000e+02 1.513360392242272034e+00
9.160000000000000000e+02 1.151061043351990332e+00
9.170000000000000000e+02 2.827619425549533494e-01
9.180000000000000000e+02 3.353151207218377228e-01
9.190000000000000000e+02 1.071184680149344981e+00
9.200000000000000000e+02 8.960890369141454315e-01
9.210000000000000000e+02 9.173717427919508838e-01
9.220000000000000000e+02 9.327151406347212736e-01
9.230000000000000000e+02 1.211211991289915746e+00
9.240000000000000000e+02 1.604460810412770000e+00
9.250000000000000000e+02 1.347859245799643890e+00
9.260000000000000000e+02 6.031395844048210719e-01
9.270000000000000000e+02 4.104933789670044408e-01
9.280000000000000000e+02 1.039133579962675968e+00
9.290000000000000000e+02 4.883567133374883129e-01
9.300000000000000000e+02 1.935325713544911341e+00
9.310000000000000000e+02 1.349979356565021327e+00
9.320000000000000000e+02 1.126222189172359833e+00
9.330000000000000000e+02 1.297554089815386336e+00
9.340000000000000000e+02 1.904159837826580937e+00
9.350000000000000000e+02 2.305444801078643913e+00
9.360000000000000000e+02 6.070830161792513113e-01
9.370000000000000000e+02 8.028267216922313487e-01
9.380000000000000000e+02 1.362590344949170307e+00
9.390000000000000000e+02 5.914767835600620582e-02
9.400000000000000000e+02 2.811867100186754564e-01
9.410000000000000000e+02 9.586822408213817592e-01
9.420000000000000000e+02 8.866868790707674863e-01
9.430000000000000000e+02 6.660716407384343896e-01
9.440000000000000000e+02 1.459581188981542432e-01
9.450000000000000000e+02 3.746000510267578631e-01
9.460000000000000000e+02 9.032205214685903316e-01
9.470000000000000000e+02 1.683635937149978945e+00
9.480000000000000000e+02 9.363434467952387319e-01
9.490000000000000000e+02 7.610854138145370928e-01
9.500000000000000000e+02 1.089039884256371549e+00
9.510000000000000000e+02 1.063903736154335533e+00
9.520000000000000000e+02 1.421670273179828969e+00
9.530000000000000000e+02 1.252353360506139435e+00
9.540000000000000000e+02 8.594875143094182768e-01
9.550000000000000000e+02 9.241578550093315636e-01
9.560000000000000000e+02 9.669034044803939132e-01
9.570000000000000000e+02 1.587539993778497971e+00
9.580000000000000000e+02 1.771612319020953397e+00
9.590000000000000000e+02 9.238810653391473782e-01
9.600000000000000000e+02 1.177942196184129237e-01
9.610000000000000000e+02 1.048915585978009851e-01
9.620000000000000000e+02 1.083516376270533682e-01
9.630000000000000000e+02 4.779822032351903616e-01
9.640000000000000000e+02 2.011573449284448145e+00
9.650000000000000000e+02 2.259172590126508950e+00
9.660000000000000000e+02 1.004657431771128095e+00
9.670000000000000000e+02 5.462301980916139943e-01
9.680000000000000000e+02 1.487770622899809325e+00
9.690000000000000000e+02 1.286538584940892127e+00
9.700000000000000000e+02 9.542706762082731053e-01
9.710000000000000000e+02 4.054729350757164119e-01
9.720000000000000000e+02 6.052846019497984953e-01
9.730000000000000000e+02 9.412373478531401716e-01
9.740000000000000000e+02 7.733739448247305415e-01
9.750000000000000000e+02 1.017237068450541182e+00
9.760000000000000000e+02 1.560583629952292384e+00
9.770000000000000000e+02 1.299946673304291478e+00
9.780000000000000000e+02 1.306026673304306218e+00
9.790000000000000000e+02 2.367491184609033628e+00
9.800000000000000000e+02 1.920661163832424911e+00
9.810000000000000000e+02 1.860566157851052171e+00
9.820000000000000000e+02 9.078946185438349081e-01
9.830000000000000000e+02 8.099645642887157715e-01
9.840000000000000000e+02 1.605644015971786409e+00
9.850000000000000000e+02 1.378002225886717058e+00
9.860000000000000000e+02 1.011419793861494609e+00
9.870000000000000000e+02 1.952661660858736603e+00
9.880000000000000000e+02 1.435396969300981818e+00
9.890000000000000000e+02 1.875126849647447358e+00
9.900000000000000000e+02 4.649209535366021218e-01
9.910000000000000000e+02 9.723678070939695273e-01
9.920000000000000000e+02 1.699994566569873911e+00
9.930000000000000000e+02 1.311034418170504479e+00
9.940000000000000000e+02 1.707527553619577088e+00
9.950000000000000000e+02 1.826640313420506034e+00
9.960000000000000000e+02 3.089616583074028533e+00
9.970000000000000000e+02 1.653023720389946272e+00
9.980000000000000000e+02 2.683008420452214438e+00
9.990000000000000000e+02 1.717106066791073360e+00
1.000000000000000000e+03 2.591555143212967982e-01
1.001000000000000000e+03 1.687857769606527225e-01
1.002000000000000000e+03 3.730253443983361228e-01
1.003000000000000000e+03 5.364053008298619307e-01
1.004000000000000000e+03 1.378886827800837933e+00
1.005000000000000000e+03 2.317426915113762753e-01
1.006000000000000000e+03 2.493713900414890050e-01
1.007000000000000000e+03 7.796950290456616806e-01
1.008000000000000000e+03 1.375382522821575026e+00
1.009000000000000000e+03 1.314861629399583398e+00
1.010000000000000000e+03 1.132966398340249370e+00
1.011000000000000000e+03 8.328486597510245115e-01
1.012000000000000000e+03 3.150878962655588866e-01
1.013000000000000000e+03 1.014343525892118514e-01
1.014000000000000000e+03 2.990957468879636427e-01
1.015000000000000000e+03 5.146083817427191676e-01
1.016000000000000000e+03 1.449041925311231882e+00
1.017000000000000000e+03 6.311519709543759182e-01
1.018000000000000000e+03 1.680403851867166565e-01
1.019000000000000000e+03 5.664967822593578450e-01
1.020000000000000000e+03 9.604654834025041499e-01
1.021000000000000000e+03 2.737460746887925844e-01
1.022000000000000000e+03 7.037401701244799801e-01
1.023000000000000000e+03 7.488842697095261514e-01
1.024000000000000000e+03 1.902354149377571413e-01
1.025000000000000000e+03 1.012184618257240709e+00
1.026000000000000000e+03 4.274050933609812031e-01
1.027000000000000000e+03 5.717206120331748131e-01
1.028000000000000000e+03 8.593387738588642577e-01
1.029000000000000000e+03 1.033854421161834347e+00
1.030000000000000000e+03 2.534782033194579176e-01
1.031000000000000000e+03 5.836108062655172984e-02
1.032000000000000000e+03 1.797724066390977982e-02
1.033000000000000000e+03 8.657935975103960846e-01
1.034000000000000000e+03 2.455387863071010202e-01
1.035000000000000000e+03 2.608560248961928618e-01
1.036000000000000000e+03 1.306728614107884878e+00
1.037000000000000000e+03 9.974094834023992107e-01
1.038000000000000000e+03 5.628343146996916957e-01
1.039000000000000000e+03 1.512555634854762188e+00
1.040000000000000000e+03 1.778458995850627389e+00
1.041000000000000000e+03 1.703357473029052827e+00
1.042000000000000000e+03 9.823050082816132678e-01
1.043000000000000000e+03 3.643488381742667759e-01
1.044000000000000000e+03 6.009388112033691165e-01
1.045000000000000000e+03 2.123565966804801697e+00
1.046000000000000000e+03 2.830670865145235027e+00
1.047000000000000000e+03 2.295024995850591054e+00
1.048000000000000000e+03 1.847834850622430247e+00
1.049000000000000000e+03 1.423982726141143962e+00
1.050000000000000000e+03 7.720697468879859082e-01
1.051000000000000000e+03 2.930321354771813436e+00
1.052000000000000000e+03 2.549910863070590228e+00
1.053000000000000000e+03 2.317764661825722605e+00
1.054000000000000000e+03 3.093608406639054120e+00
1.055000000000000000e+03 3.209797908713749148e+00
1.056000000000000000e+03 3.421224585062194734e+00
1.057000000000000000e+03 4.114972767634856865e+00
1.058000000000000000e+03 4.286548319502117899e+00
1.059000000000000000e+03 5.259478284232306677e+00
1.060000000000000000e+03 6.188730199170126234e+00
1.061000000000000000e+03 7.814584595435681180e+00
1.062000000000000000e+03 7.284108120331914904e+00
1.063000000000000000e+03 8.529673116182543424e+00
1.064000000000000000e+03 9.045194763485472578e+00
1.065000000000000000e+03 1.023343687966812610e+01
1.066000000000000000e+03 1.228609278008291916e+01
1.067000000000000000e+03 1.379727496894410876e+01
1.068000000000000000e+03 1.611384342323668761e+01
1.069000000000000000e+03 1.840712987551844648e+01
1.070000000000000000e+03 2.132692663900405705e+01
1.071000000000000000e+03 2.488908946169790681e+01
1.072000000000000000e+03 2.876096053941878594e+01
1.073000000000000000e+03 3.408740228215737034e+01
1.074000000000000000e+03 3.937184875518676819e+01
1.075000000000000000e+03 4.516884809523848077e+01
1.076000000000000000e+03 5.139005825726099630e+01
1.077000000000000000e+03 5.804861547717829495e+01
1.078000000000000000e+03 6.714304869294647915e+01
1.079000000000000000e+03 7.655384848547745946e+01
1.080000000000000000e+03 8.731594688796641890e+01
1.081000000000000000e+03 9.731645796680520277e+01
1.082000000000000000e+03 1.066665278008306927e+02
1.083000000000000000e+03 1.174065730290447078e+02
1.084000000000000000e+03 1.267585099378881495e+02
1.085000000000000000e+03 1.360894408713699306e+02
1.086000000000000000e+03 1.449353668049786847e+02
1.087000000000000000e+03 1.494255937759334643e+02
1.088000000000000000e+03 1.502749365145228637e+02
1.089000000000000000e+03 1.505991609958506388e+02
1.090000000000000000e+03 1.496111165975107724e+02
1.091000000000000000e+03 1.423035705394191268e+02
1.092000000000000000e+03 1.364971709543563918e+02
1.093000000000000000e+03 1.288266914937767922e+02
1.094000000000000000e+03 1.192017537344401319e+02
1.095000000000000000e+03 1.087458350622403316e+02
1.096000000000000000e+03 9.856513954451378368e+01
1.097000000000000000e+03 8.975434410788426476e+01
1.098000000000000000e+03 8.088331016597503265e+01
1.099000000000000000e+03 7.104819941908655778e+01
1.100000000000000000e+03 6.532964717842367008e+01
1.101000000000000000e+03 5.787256450207480896e+01
1.102000000000000000e+03 5.175591053941880659e+01
1.103000000000000000e+03 4.531257006224021922e+01
1.104000000000000000e+03 4.037232987577661447e+01
1.105000000000000000e+03 3.601631842323640598e+01
1.106000000000000000e+03 3.220798261410770635e+01
1.107000000000000000e+03 2.871706842323697373e+01
1.108000000000000000e+03 2.425602435684653457e+01
1.109000000000000000e+03 2.245111541493764662e+01
1.110000000000000000e+03 2.020402551867226393e+01
1.111000000000000000e+03 1.757293309128641567e+01
1.112000000000000000e+03 1.610406541493774313e+01
1.113000000000000000e+03 1.483108031055887821e+01
1.114000000000000000e+03 1.272453448132796616e+01
1.115000000000000000e+03 1.209433402489626630e+01
1.116000000000000000e+03 1.076181593360979605e+01
1.117000000000000000e+03 8.741397771784210846e+00
1.118000000000000000e+03 8.396522271784281344e+00
1.119000000000000000e+03 7.022727419087125611e+00
1.120000000000000000e+03 6.527659047717744301e+00
1.121000000000000000e+03 5.132494327800897871e+00
1.122000000000000000e+03 4.271934319502070920e+00
1.123000000000000000e+03 4.058275892116164130e+00
1.124000000000000000e+03 2.443478145228275888e+00
1.125000000000000000e+03 2.107400190476170554e+00
1.126000000000000000e+03 3.046612582987595630e+00
1.127000000000000000e+03 3.457930885892123829e+00
1.128000000000000000e+03 3.025380082987588537e+00
1.129000000000000000e+03 2.176091548654245145e+00
1.130000000000000000e+03 1.548110112033347363e+00
1.131000000000000000e+03 2.807635282157797008e+00
1.132000000000000000e+03 9.406251037344375288e-01
1.133000000000000000e+03 2.225624291925527132e+00
1.134000000000000000e+03 1.809306713692925284e+00
1.135000000000000000e+03 1.961815489626518083e+00
1.136000000000000000e+03 2.391444578838175072e+00
1.137000000000000000e+03 1.492359748962537314e+00
1.138000000000000000e+03 9.227435726140578165e-01
1.139000000000000000e+03 8.216716182572720850e-01
1.140000000000000000e+03 4.460371535270101773e-01
1.141000000000000000e+03 1.759124066389526619e-01
1.142000000000000000e+03 3.985305000000082809e-01
1.143000000000000000e+03 2.679268070539702618e-01
1.144000000000000000e+03 1.574717325726214590e+00
1.145000000000000000e+03 1.800771977178471372e+00
1.146000000000000000e+03 8.299063858921096326e-01
1.147000000000000000e+03 1.865766058091210267e-01
1.148000000000000000e+03 1.509144522821590784e-01
1.149000000000000000e+03 1.307877062240562438e+00
1.150000000000000000e+03 2.031237346472973382e+00
1.151000000000000000e+03 4.409096410787288756e-01
1.152000000000000000e+03 4.833287420955364316e-02
1.153000000000000000e+03 2.042059439674260291e-01
1.154000000000000000e+03 1.304447434782679771e+00
1.155000000000000000e+03 7.843927012448861369e-01
1.156000000000000000e+03 3.511725560165945836e-01
1.157000000000000000e+03 8.553190788381802578e-01
1.158000000000000000e+03 3.293392173912786935e-01
1.159000000000000000e+03 1.641730441369473603e-01
1.160000000000000000e+03 4.285031307054057992e-01
1.161000000000000000e+03 6.275910601658876153e-01
1.162000000000000000e+03 2.206538550724388426e-01
1.163000000000000000e+03 1.416172406639041870e-01
1.164000000000000000e+03 3.201719751037043205e-01
1.165000000000000000e+03 1.046124232365077900e+00
1.166000000000000000e+03 5.066705311203787421e-01
1.167000000000000000e+03 2.243277157676346056e-01
1.168000000000000000e+03 1.083400350622506725e+00
1.169000000000000000e+03 1.145666815352736512e+00
1.170000000000000000e+03 5.689759543568547739e-01
1.171000000000000000e+03 5.026798464730528604e-01
1.172000000000000000e+03 3.935189121162742110e-01
1.173000000000000000e+03 6.789935269708651244e-01
1.174000000000000000e+03 2.155602680497919366e+00
1.175000000000000000e+03 1.385917983402494391e+00
1.176000000000000000e+03 8.065078423236181626e-01
1.177000000000000000e+03 2.053711809128628385e+00
1.178000000000000000e+03 1.226560408713619488e+00
1.179000000000000000e+03 7.068754149377772800e-01
1.180000000000000000e+03 5.332023070539456677e-01
1.181000000000000000e+03 6.602370580912948483e-01
1.182000000000000000e+03 1.499621767634959912e+00
1.183000000000000000e+03 1.327724539419145033e+00
1.184000000000000000e+03 1.125564987551886942e+00
1.185000000000000000e+03 1.893350240663817408e+00
1.186000000000000000e+03 7.031137012449132362e-01
1.187000000000000000e+03 1.709000296231691918e-01
1.188000000000000000e+03 3.533440539418663540e-01
1.189000000000000000e+03 1.049721452282151635e+00
1.190000000000000000e+03 1.053531435684666562e+00
1.191000000000000000e+03 9.367334596273300118e-01
1.192000000000000000e+03 1.323249649377632675e+00
1.193000000000000000e+03 1.145814383817473470e+00
1.194000000000000000e+03 4.154700456431697497e-01
1.195000000000000000e+03 2.638204274294821405e-01
1.196000000000000000e+03 4.765816348548049253e-01
1.197000000000000000e+03 2.784885103733573120e-01
1.198000000000000000e+03 1.424472489626541716e+00
1.199000000000000000e+03 7.098257136929394528e-01
1.200000000000000000e+03 7.258438858921352210e-01
1.201000000000000000e+03 7.080521763485432274e-01
1.202000000000000000e+03 2.489597425311238510e+00
1.203000000000000000e+03 1.283692321576777706e+00
1.204000000000000000e+03 1.929713497925267696e+00
1.205000000000000000e+03 1.350919037344343598e+00
1.206000000000000000e+03 1.269398091286417340e+00
1.207000000000000000e+03 1.605786506224078147e+00
1.208000000000000000e+03 1.851332290456438656e+00
1.209000000000000000e+03 2.191170499999991694e+00
1.210000000000000000e+03 1.854770856846416072e+00
1.211000000000000000e+03 2.117142037344416750e+00
1.212000000000000000e+03 1.464063340248911826e+00
1.213000000000000000e+03 9.277385477178952122e-01
1.214000000000000000e+03 2.554812954356791455e+00
1.215000000000000000e+03 2.329536178423234904e+00
1.216000000000000000e+03 1.461068049689381976e+00
1.217000000000000000e+03 9.004477406639168624e-01
1.218000000000000000e+03 1.949445647302871176e+00
1.219000000000000000e+03 9.897599107882604219e-01
1.220000000000000000e+03 7.282332380951402895e-01
1.221000000000000000e+03 1.503144149377606320e+00
1.222000000000000000e+03 3.636874854771561250e-01
1.223000000000000000e+03 1.435549390085270882e-01
1.224000000000000000e+03 1.639313772256941082e+00
1.225000000000000000e+03 4.525896846472923785e-01
1.226000000000000000e+03 2.971315902489645389e+00
1.227000000000000000e+03 1.918928091286246307e+00
1.228000000000000000e+03 7.830356265560498574e-01
1.229000000000000000e+03 5.962353734439971298e-01
1.230000000000000000e+03 2.254652950207647777e+00
1.231000000000000000e+03 2.306449369294696350e+00
1.232000000000000000e+03 1.718080294605810687e+00
1.233000000000000000e+03 1.343567134854732226e+00
1.234000000000000000e+03 1.127077564315347002e+00
1.235000000000000000e+03 1.657500821576734840e+00
1.236000000000000000e+03 2.204205199170129692e+00
1.237000000000000000e+03 2.182152705394292180e+00
1.238000000000000000e+03 3.027841116182598213e+00
1.239000000000000000e+03 2.310755726141077826e+00
1.240000000000000000e+03 1.322260186722004738e+00
1.241000000000000000e+03 2.261921802904475420e+00
1.242000000000000000e+03 2.834576248962660472e+00
1.243000000000000000e+03 1.066134307053867580e+00
1.244000000000000000e+03 1.110366373444113819e+00
1.245000000000000000e+03 2.002156180124194496e+00
1.246000000000000000e+03 2.046891896265556010e+00
1.247000000000000000e+03 1.833357568464718979e+00
1.248000000000000000e+03 1.564637647302929979e+00
1.249000000000000000e+03 1.661223053830223506e+00
1.250000000000000000e+03 2.034371894190818431e+00
1.251000000000000000e+03 1.024110842323561643e+00
1.252000000000000000e+03 3.047537240663924507e-01
1.253000000000000000e+03 4.842973084886185720e-01
1.254000000000000000e+03 1.016950502074762452e+00
1.255000000000000000e+03 1.806687846473008063e+00
1.256000000000000000e+03 1.020946116182587238e+00
1.257000000000000000e+03 6.412682987551926450e-01
1.258000000000000000e+03 1.302950286307041017e+00
1.259000000000000000e+03 1.888684686721979977e+00
1.260000000000000000e+03 1.743424134854761665e+00
1.261000000000000000e+03 8.903417074687874910e-01
1.262000000000000000e+03 5.082401659750876988e-01
1.263000000000000000e+03 1.459170999999999996e+00
1.264000000000000000e+03 2.085254369294520238e+00
1.265000000000000000e+03 1.163775633540335974e+00
1.266000000000000000e+03 1.365144788381762453e+00
1.267000000000000000e+03 3.983080477178130296e-01
1.268000000000000000e+03 7.505749729668463599e-02
1.269000000000000000e+03 9.662642323650689757e-01
1.270000000000000000e+03 1.850314759336107118e+00
1.271000000000000000e+03 1.601918962655547007e+00
1.272000000000000000e+03 3.757240000001206837e-01
1.273000000000000000e+03 6.886399834024474753e-01
1.274000000000000000e+03 1.137366948240160935e+00
1.275000000000000000e+03 1.520058089211534069e+00
1.276000000000000000e+03 1.494341375518712045e+00
1.277000000000000000e+03 1.651605817427401091e+00
1.278000000000000000e+03 2.342538767634662289e+00
1.279000000000000000e+03 1.169048390704995888e-01
1.280000000000000000e+03 2.598452987551655990e-01
1.281000000000000000e+03 1.676607821576789670e+00
1.282000000000000000e+03 1.449594571428544310e+00
1.283000000000000000e+03 1.554918817427443922e-01
1.284000000000000000e+03 1.178605043568487387e+00
1.285000000000000000e+03 8.853227925310476198e-01
1.286000000000000000e+03 5.496772800829845540e-01
1.287000000000000000e+03 8.753301161825721710e-01
1.288000000000000000e+03 1.429454145228252981e+00
1.289000000000000000e+03 1.235442016597567028e+00
1.290000000000000000e+03 9.898947494823789883e-01
1.291000000000000000e+03 1.871690041493809797e+00
1.292000000000000000e+03 2.144985917012367516e+00
1.293000000000000000e+03 1.096872533195072386e+00
1.294000000000000000e+03 7.244723436852997800e-01
1.295000000000000000e+03 8.102530746887870450e-01
1.296000000000000000e+03 7.575213153526789700e-01
1.297000000000000000e+03 1.061555975103728677e+00
1.298000000000000000e+03 1.061364771784229166e+00
1.299000000000000000e+03 8.374328070539543978e-01
1.300000000000000000e+03 4.033420912863315833e-01
1.301000000000000000e+03 3.465787759335980933e-02
1.302000000000000000e+03 9.540166203320317173e-01
1.303000000000000000e+03 2.685104761916612404e-02
1.304000000000000000e+03 0.000000000000000000e+00
1.305000000000000000e+03 0.000000000000000000e+00
1.306000000000000000e+03 0.000000000000000000e+00
1.307000000000000000e+03 0.000000000000000000e+00
1.308000000000000000e+03 0.000000000000000000e+00
1.309000000000000000e+03 0.000000000000000000e+00
1.310000000000000000e+03 0.000000000000000000e+00
1.311000000000000000e+03 0.000000000000000000e+00
1.312000000000000000e+03 0.000000000000000000e+00
1.313000000000000000e+03 0.000000000000000000e+00
1.314000000000000000e+03 0.000000000000000000e+00
1.315000000000000000e+03 0.000000000000000000e+00
1.316000000000000000e+03 0.000000000000000000e+00
1.317000000000000000e+03 0.000000000000000000e+00
1.318000000000000000e+03 0.000000000000000000e+00
1.319000000000000000e+03 0.000000000000000000e+00
1.320000000000000000e+03 0.000000000000000000e+00
1.321000000000000000e+03 0.000000000000000000e+00
1.322000000000000000e+03 0.000000000000000000e+00
1.323000000000000000e+03 0.000000000000000000e+00
1.324000000000000000e+03 0.000000000000000000e+00
1.325000000000000000e+03 0.000000000000000000e+00
1.326000000000000000e+03 0.000000000000000000e+00
1.327000000000000000e+03 0.000000000000000000e+00
1.328000000000000000e+03 0.000000000000000000e+00
1.329000000000000000e+03 0.000000000000000000e+00
1.330000000000000000e+03 0.000000000000000000e+00
1.331000000000000000e+03 0.000000000000000000e+00
1.332000000000000000e+03 0.000000000000000000e+00
1.333000000000000000e+03 0.000000000000000000e+00
1.334000000000000000e+03 0.000000000000000000e+00
1.335000000000000000e+03 0.000000000000000000e+00
1.336000000000000000e+03 0.000000000000000000e+00
1.337000000000000000e+03 0.000000000000000000e+00
1.338000000000000000e+03 0.000000000000000000e+00
1.339000000000000000e+03 0.000000000000000000e+00
1.340000000000000000e+03 0.000000000000000000e+00
1.341000000000000000e+03 0.000000000000000000e+00
1.342000000000000000e+03 0.000000000000000000e+00
1.343000000000000000e+03 0.000000000000000000e+00
1.344000000000000000e+03 0.000000000000000000e+00
1.345000000000000000e+03 0.000000000000000000e+00
1.346000000000000000e+03 0.000000000000000000e+00
1.347000000000000000e+03 0.000000000000000000e+00
1.348000000000000000e+03 0.000000000000000000e+00
1.349000000000000000e+03 0.000000000000000000e+00
1.350000000000000000e+03 0.000000000000000000e+00
1.351000000000000000e+03 0.000000000000000000e+00
1.352000000000000000e+03 0.000000000000000000e+00
1.353000000000000000e+03 0.000000000000000000e+00
1.354000000000000000e+03 0.000000000000000000e+00
1.355000000000000000e+03 0.000000000000000000e+00
1.356000000000000000e+03 0.000000000000000000e+00
1.357000000000000000e+03 0.000000000000000000e+00
1.358000000000000000e+03 0.000000000000000000e+00
1.359000000000000000e+03 0.000000000000000000e+00
1.360000000000000000e+03 0.000000000000000000e+00
1.361000000000000000e+03 0.000000000000000000e+00
1.362000000000000000e+03 0.000000000000000000e+00
1.363000000000000000e+03 0.000000000000000000e+00
1.364000000000000000e+03 0.000000000000000000e+00
1.365000000000000000e+03 0.000000000000000000e+00
1.366000000000000000e+03 0.000000000000000000e+00
1.367000000000000000e+03 0.000000000000000000e+00
1.368000000000000000e+03 0.000000000000000000e+00
1.369000000000000000e+03 0.000000000000000000e+00
1.370000000000000000e+03 0.000000000000000000e+00
1.371000000000000000e+03 0.000000000000000000e+00
1.372000000000000000e+03 0.000000000000000000e+00
1.373000000000000000e+03 0.000000000000000000e+00
1.374000000000000000e+03 0.000000000000000000e+00
1.375000000000000000e+03 0.000000000000000000e+00
1.376000000000000000e+03 0.000000000000000000e+00
1.377000000000000000e+03 0.000000000000000000e+00
1.378000000000000000e+03 0.000000000000000000e+00
1.379000000000000000e+03 0.000000000000000000e+00
1.380000000000000000e+03 0.000000000000000000e+00
1.381000000000000000e+03 0.000000000000000000e+00
1.382000000000000000e+03 0.000000000000000000e+00
1.383000000000000000e+03 0.000000000000000000e+00
1.384000000000000000e+03 0.000000000000000000e+00
1.385000000000000000e+03 0.000000000000000000e+00
1.386000000000000000e+03 0.000000000000000000e+00
1.387000000000000000e+03 0.000000000000000000e+00
1.388000000000000000e+03 0.000000000000000000e+00
1.389000000000000000e+03 0.000000000000000000e+00
1.390000000000000000e+03 0.000000000000000000e+00
1.391000000000000000e+03 0.000000000000000000e+00
1.392000000000000000e+03 0.000000000000000000e+00
1.393000000000000000e+03 0.000000000000000000e+00
1.394000000000000000e+03 0.000000000000000000e+00
1.395000000000000000e+03 0.000000000000000000e+00
1.396000000000000000e+03 0.000000000000000000e+00
1.397000000000000000e+03 0.000000000000000000e+00
1.398000000000000000e+03 0.000000000000000000e+00
1.399000000000000000e+03 0.000000000000000000e+00
1.400000000000000000e+03 0.000000000000000000e+00
1.401000000000000000e+03 0.000000000000000000e+00
1.402000000000000000e+03 0.000000000000000000e+00
1.403000000000000000e+03 0.000000000000000000e+00
1.404000000000000000e+03 0.000000000000000000e+00
1.405000000000000000e+03 0.000000000000000000e+00
1.406000000000000000e+03 0.000000000000000000e+00
1.407000000000000000e+03 0.000000000000000000e+00
1.408000000000000000e+03 0.000000000000000000e+00
1.409000000000000000e+03 0.000000000000000000e+00
1.410000000000000000e+03 0.000000000000000000e+00
1.411000000000000000e+03 0.000000000000000000e+00
1.412000000000000000e+03 0.000000000000000000e+00
1.413000000000000000e+03 0.000000000000000000e+00
1.414000000000000000e+03 0.000000000000000000e+00
1.415000000000000000e+03 0.000000000000000000e+00
1.416000000000000000e+03 0.000000000000000000e+00
1.417000000000000000e+03 0.000000000000000000e+00
1.418000000000000000e+03 0.000000000000000000e+00
1.419000000000000000e+03 0.000000000000000000e+00
1.420000000000000000e+03 0.000000000000000000e+00
1.421000000000000000e+03 0.000000000000000000e+00
1.422000000000000000e+03 0.000000000000000000e+00
1.423000000000000000e+03 0.000000000000000000e+00
1.424000000000000000e+03 0.000000000000000000e+00
1.425000000000000000e+03 0.000000000000000000e+00
1.426000000000000000e+03 0.000000000000000000e+00
1.427000000000000000e+03 0.000000000000000000e+00
1.428000000000000000e+03 0.000000000000000000e+00
1.429000000000000000e+03 0.000000000000000000e+00
1.430000000000000000e+03 0.000000000000000000e+00
1.431000000000000000e+03 0.000000000000000000e+00
1.432000000000000000e+03 0.000000000000000000e+00
1.433000000000000000e+03 0.000000000000000000e+00
1.434000000000000000e+03 0.000000000000000000e+00
1.435000000000000000e+03 0.000000000000000000e+00
1.436000000000000000e+03 0.000000000000000000e+00
1.437000000000000000e+03 0.000000000000000000e+00
1.438000000000000000e+03 0.000000000000000000e+00
1.439000000000000000e+03 0.000000000000000000e+00
1.440000000000000000e+03 0.000000000000000000e+00
1.441000000000000000e+03 0.000000000000000000e+00
1.442000000000000000e+03 0.000000000000000000e+00
1.443000000000000000e+03 0.000000000000000000e+00
1.444000000000000000e+03 0.000000000000000000e+00
1.445000000000000000e+03 0.000000000000000000e+00
1.446000000000000000e+03 0.000000000000000000e+00
1.447000000000000000e+03 0.000000000000000000e+00
1.448000000000000000e+03 0.000000000000000000e+00
1.449000000000000000e+03 0.000000000000000000e+00
1.450000000000000000e+03 0.000000000000000000e+00
1.451000000000000000e+03 0.000000000000000000e+00
1.452000000000000000e+03 0.000000000000000000e+00
1.453000000000000000e+03 0.000000000000000000e+00
1.454000000000000000e+03 0.000000000000000000e+00
1.455000000000000000e+03 0.000000000000000000e+00
1.456000000000000000e+03 0.000000000000000000e+00
1.457000000000000000e+03 0.000000000000000000e+00
1.458000000000000000e+03 0.000000000000000000e+00
1.459000000000000000e+03 0.000000000000000000e+00
1.460000000000000000e+03 0.000000000000000000e+00
1.461000000000000000e+03 0.000000000000000000e+00
1.462000000000000000e+03 0.000000000000000000e+00
1.463000000000000000e+03 0.000000000000000000e+00
1.464000000000000000e+03 0.000000000000000000e+00
1.465000000000000000e+03 0.000000000000000000e+00
1.466000000000000000e+03 0.000000000000000000e+00
1.467000000000000000e+03 0.000000000000000000e+00
1.468000000000000000e+03 0.000000000000000000e+00
1.469000000000000000e+03 0.000000000000000000e+00
1.470000000000000000e+03 0.000000000000000000e+00
1.471000000000000000e+03 0.000000000000000000e+00
1.472000000000000000e+03 0.000000000000000000e+00
1.473000000000000000e+03 0.000000000000000000e+00
1.474000000000000000e+03 0.000000000000000000e+00
1.475000000000000000e+03 0.000000000000000000e+00
1.476000000000000000e+03 0.000000000000000000e+00
1.477000000000000000e+03 0.000000000000000000e+00
1.478000000000000000e+03 0.000000000000000000e+00
1.479000000000000000e+03 0.000000000000000000e+00
1.480000000000000000e+03 0.000000000000000000e+00
1.481000000000000000e+03 0.000000000000000000e+00
1.482000000000000000e+03 0.000000000000000000e+00
1.483000000000000000e+03 0.000000000000000000e+00
1.484000000000000000e+03 0.000000000000000000e+00
1.485000000000000000e+03 0.000000000000000000e+00
1.486000000000000000e+03 0.000000000000000000e+00
1.487000000000000000e+03 0.000000000000000000e+00
1.488000000000000000e+03 0.000000000000000000e+00
1.489000000000000000e+03 0.000000000000000000e+00
1.490000000000000000e+03 0.000000000000000000e+00
1.491000000000000000e+03 0.000000000000000000e+00
1.492000000000000000e+03 0.000000000000000000e+00
1.493000000000000000e+03 0.000000000000000000e+00
1.494000000000000000e+03 0.000000000000000000e+00
1.495000000000000000e+03 0.000000000000000000e+00
1.496000000000000000e+03 0.000000000000000000e+00
1.497000000000000000e+03 0.000000000000000000e+00
1.498000000000000000e+03 0.000000000000000000e+00
1.499000000000000000e+03 0.000000000000000000e+00
1.500000000000000000e+03 0.000000000000000000e+00
