1.010000000000000000e+02 0.000000000000000000e+00
1.020000000000000000e+02 0.000000000000000000e+00
1.030000000000000000e+02 0.000000000000000000e+00
1.040000000000000000e+02 0.000000000000000000e+00
1.050000000000000000e+02 0.000000000000000000e+00
1.060000000000000000e+02 0.000000000000000000e+00
1.070000000000000000e+02 0.000000000000000000e+00
1.080000000000000000e+02 0.000000000000000000e+00
1.090000000000000000e+02 0.000000000000000000e+00
1.100000000000000000e+02 0.000000000000000000e+00
1.110000000000000000e+02 0.000000000000000000e+00
1.120000000000000000e+02 0.000000000000000000e+00
1.130000000000000000e+02 0.000000000000000000e+00
1.140000000000000000e+02 0.000000000000000000e+00
1.150000000000000000e+02 0.000000000000000000e+00
1.160000000000000000e+02 0.000000000000000000e+00
1.170000000000000000e+02 0.000000000000000000e+00
1.180000000000000000e+02 0.000000000000000000e+00
1.190000000000000000e+02 0.000000000000000000e+00
1.200000000000000000e+02 0.000000000000000000e+00
1.210000000000000000e+02 0.000000000000000000e+00
1.220000000000000000e+02 0.000000000000000000e+00
1.230000000000000000e+02 0.000000000000000000e+00
1.240000000000000000e+02 0.000000000000000000e+00
1.250000000000000000e+02 0.000000000000000000e+00
1.260000000000000000e+02 0.000000000000000000e+00
1.270000000000000000e+02 0.000000000000000000e+00
1.280000000000000000e+02 0.000000000000000000e+00
1.290000000000000000e+02 0.000000000000000000e+00
1.300000000000000000e+02 0.000000000000000000e+00
1.310000000000000000e+02 0.000000000000000000e+00
1.320000000000000000e+02 0.000000000000000000e+00
1.330000000000000000e+02 0.000000000000000000e+00
1.340000000000000000e+02 0.000000000000000000e+00
1.350000000000000000e+02 0.000000000000000000e+00
1.360000000000000000e+02 0.000000000000000000e+00
1.370000000000000000e+02 0.000000000000000000e+00
1.380000000000000000e+02 0.000000000000000000e+00
1.390000000000000000e+02 0.000000000000000000e+00
1.400000000000000000e+02 0.000000000000000000e+00
1.410000000000000000e+02 0.000000000000000000e+00
1.420000000000000000e+02 0.000000000000000000e+00
1.430000000000000000e+02 0.000000000000000000e+00
1.440000000000000000e+02 0.000000000000000000e+00
1.450000000000000000e+02 0.000000000000000000e+00
1.460000000000000000e+02 0.000000000000000000e+00
1.470000000000000000e+02 0.000000000000000000e+00
1.480000000000000000e+02 0.000000000000000000e+00
1.490000000000000000e+02 0.000000000000000000e+00
1.500000000000000000e+02 0.000000000000000000e+00
1.510000000000000000e+02 0.000000000000000000e+00
1.520000000000000000e+02 0.000000000000000000e+00
1.530000000000000000e+02 0.000000000000000000e+00
1.540000000000000000e+02 0.000000000000000000e+00
1.550000000000000000e+02 0.000000000000000000e+00
1.560000000000000000e+02 0.000000000000000000e+00
1.570000000000000000e+02 0.000000000000000000e+00
1.580000000000000000e+02 7.369520684505285857e+00
1.590000000000000000e+02 2.420385071354472473e+01
1.600000000000000000e+02 7.579341126529780581e+01
1.610000000000000000e+02 1.291514059448194729e+01
1.620000000000000000e+02 1.810536254013700841e+01
1.630000000000000000e+02 2.660499054760430226e+01
1.640000000000000000e+02 9.813071014312230389e+00
1.650000000000000000e+02 6.869115875129844540e+01
1.660000000000000000e+02 3.124264240978863540e+02
1.670000000000000000e+02 5.470947944617296343e+02
1.680000000000000000e+02 5.904612353453655942e+02
1.690000000000000000e+02 3.539402004562431330e+02
1.700000000000000000e+02 2.890348806264262862e+02
1.710000000000000000e+02 2.749687432482886607e+02
1.720000000000000000e+02 2.796982817710484710e+02
1.730000000000000000e+02 4.547152929267793979e+02
1.740000000000000000e+02 4.193254698195385686e+02
1.750000000000000000e+02 4.259577846121941889e+02
1.760000000000000000e+02 4.855449889856875529e+02
1.770000000000000000e+02 4.144681214685758732e+02
1.780000000000000000e+02 3.066562447210117739e+02
1.790000000000000000e+02 3.051509265712510341e+02
1.800000000000000000e+02 3.415939889856876448e+02
1.810000000000000000e+02 2.960585943995026241e+02
1.820000000000000000e+02 2.508958424600698720e+02
1.830000000000000000e+02 1.871374983405926855e+02
1.840000000000000000e+02 9.465263421281910894e+01
1.850000000000000000e+02 1.903270498444310732e+01
1.860000000000000000e+02 6.404317759800808574e+01
1.870000000000000000e+02 2.094988263181845412e+01
1.880000000000000000e+02 9.667938486206164583e+00
1.890000000000000000e+02 4.145416493156371018e+01
1.900000000000000000e+02 3.980170467952593327e+01
1.910000000000000000e+02 5.214988182119876114e+01
1.920000000000000000e+02 9.667923751503877838e+00
1.930000000000000000e+02 4.876887679112204665e+01
1.940000000000000000e+02 8.058591436216507020e+01
1.950000000000000000e+02 1.393975372121973066e+02
1.960000000000000000e+02 2.011125819332091282e+02
1.970000000000000000e+02 2.528191699025098274e+02
1.980000000000000000e+02 3.239389637834461837e+02
1.990000000000000000e+02 5.121642649657750326e+02
2.000000000000000000e+02 7.075125836755873934e+02
2.010000000000000000e+02 8.537646886330635425e+02
2.020000000000000000e+02 9.696638328769955706e+02
2.030000000000000000e+02 1.149384023646543938e+03
2.040000000000000000e+02 1.344836298070940984e+03
2.050000000000000000e+02 1.552618275668948854e+03
2.060000000000000000e+02 1.788440312733304609e+03
2.070000000000000000e+02 2.069220515038371104e+03
2.080000000000000000e+02 2.290130461107656174e+03
2.090000000000000000e+02 2.515277475528827381e+03
2.100000000000000000e+02 2.763371612528520473e+03
2.110000000000000000e+02 3.012279996266332546e+03
2.120000000000000000e+02 3.294538390294483634e+03
2.130000000000000000e+02 3.598370379589298409e+03
2.140000000000000000e+02 3.882671232316946771e+03
2.150000000000000000e+02 4.126916368726667315e+03
2.160000000000000000e+02 4.381998416511100004e+03
2.170000000000000000e+02 4.671828277535783855e+03
2.180000000000000000e+02 4.925260369141435149e+03
2.190000000000000000e+02 5.078671892553411453e+03
2.200000000000000000e+02 5.096963857913296124e+03
2.210000000000000000e+02 5.083261056834680858e+03
2.220000000000000000e+02 4.942870362165524966e+03
2.230000000000000000e+02 4.695549669778054522e+03
2.240000000000000000e+02 4.457639822443479716e+03
2.250000000000000000e+02 4.179956067620822068e+03
2.260000000000000000e+02 3.880631723766070536e+03
2.270000000000000000e+02 3.589046567517113544e+03
2.280000000000000000e+02 3.327336890894007411e+03
2.290000000000000000e+02 3.085619121526336130e+03
2.300000000000000000e+02 2.893602515453224441e+03
2.310000000000000000e+02 2.663224860609831921e+03
2.320000000000000000e+02 2.411032197884256675e+03
2.330000000000000000e+02 2.334058795270691917e+03
2.340000000000000000e+02 2.170278059116364147e+03
2.350000000000000000e+02 1.995834001451980839e+03
2.360000000000000000e+02 1.838480712507779344e+03
2.370000000000000000e+02 1.664363480813111209e+03
2.380000000000000000e+02 1.446667142294127871e+03
2.390000000000000000e+02 1.267167924911843329e+03
2.400000000000000000e+02 1.154330797759801044e+03
2.410000000000000000e+02 1.056170556938396203e+03
2.420000000000000000e+02 8.181025165525810507e+02
2.430000000000000000e+02 6.717235568139383304e+02
2.440000000000000000e+02 5.406433387678906684e+02
2.450000000000000000e+02 4.004705244555079844e+02
2.460000000000000000e+02 3.533188766023638436e+02
2.470000000000000000e+02 2.705810213856041173e+02
2.480000000000000000e+02 2.142184185646131027e+02
2.490000000000000000e+02 1.858772695291435753e+02
2.500000000000000000e+02 1.599322222153080588e+02
2.510000000000000000e+02 1.566089577680980938e+02
2.520000000000000000e+02 2.103148655258246436e+02
2.530000000000000000e+02 2.487869959344534720e+02
2.540000000000000000e+02 2.377652268823895838e+02
2.550000000000000000e+02 2.508822265090233543e+02
2.560000000000000000e+02 3.229092522920539068e+02
2.570000000000000000e+02 4.000633504667094371e+02
2.580000000000000000e+02 5.033125142086691426e+02
2.590000000000000000e+02 7.051415599253248274e+02
2.600000000000000000e+02 8.068450858772268930e+02
2.610000000000000000e+02 1.003442810723915841e+03
2.620000000000000000e+02 1.237442124870357929e+03
2.630000000000000000e+02 1.423179563251761920e+03
2.640000000000000000e+02 1.656730691972621571e+03
2.650000000000000000e+02 1.870429762912259321e+03
2.660000000000000000e+02 2.119500520945668995e+03
2.670000000000000000e+02 2.426283284173412994e+03
2.680000000000000000e+02 2.745676733042940668e+03
2.690000000000000000e+02 3.022327835752794272e+03
2.700000000000000000e+02 3.419295029039630208e+03
2.710000000000000000e+02 3.846896968886130708e+03
2.720000000000000000e+02 4.167508693902938830e+03
2.730000000000000000e+02 4.551699642190409577e+03
2.740000000000000000e+02 4.797311465463592867e+03
2.750000000000000000e+02 4.954237700891930217e+03
2.760000000000000000e+02 4.978558624351797334e+03
2.770000000000000000e+02 4.662028693839459265e+03
2.780000000000000000e+02 4.332623528935905597e+03
2.790000000000000000e+02 3.969406369218007057e+03
2.800000000000000000e+02 3.514339817672687786e+03
2.810000000000000000e+02 3.008450749222149170e+03
2.820000000000000000e+02 2.635248346608586417e+03
2.830000000000000000e+02 2.287229111387679950e+03
2.840000000000000000e+02 1.980987342460065747e+03
2.850000000000000000e+02 1.732626337896699170e+03
2.860000000000000000e+02 1.477169464122769341e+03
2.870000000000000000e+02 1.260908107654008973e+03
2.880000000000000000e+02 1.108973359883839294e+03
2.890000000000000000e+02 9.627363414143494538e+02
2.900000000000000000e+02 7.665700897531663713e+02
2.910000000000000000e+02 6.627583640323588270e+02
2.920000000000000000e+02 5.542536432482896771e+02
2.930000000000000000e+02 4.947768703795892975e+02
2.940000000000000000e+02 4.913028663417670145e+02
2.950000000000000000e+02 4.232539812694461716e+02
2.960000000000000000e+02 3.782499570006224303e+02
2.970000000000000000e+02 3.543656557445041244e+02
2.980000000000000000e+02 3.284227089607962284e+02
2.990000000000000000e+02 2.942589581207217293e+02
3.000000000000000000e+02 2.901702583488899450e+02
3.010000000000000000e+02 2.654286314250149985e+02
3.020000000000000000e+02 2.397170517942333845e+02
3.030000000000000000e+02 2.354884881974690529e+02
3.040000000000000000e+02 2.544624373573952596e+02
3.050000000000000000e+02 2.747542331051652127e+02
3.060000000000000000e+02 2.872086285625387632e+02
3.070000000000000000e+02 2.883426450528939995e+02
3.080000000000000000e+02 2.711844505289361678e+02
3.090000000000000000e+02 2.752792284588257985e+02
3.100000000000000000e+02 3.358716638456741634e+02
3.110000000000000000e+02 3.912129060153487217e+02
3.120000000000000000e+02 3.966285185231279229e+02
3.130000000000000000e+02 3.391179646131508889e+02
3.140000000000000000e+02 3.290639382828701969e+02
3.150000000000000000e+02 3.266633136278779830e+02
3.160000000000000000e+02 3.136653873885085204e+02
3.170000000000000000e+02 2.890168048320196590e+02
3.180000000000000000e+02 2.511196622484953309e+02
3.190000000000000000e+02 1.924353549471055942e+02
3.200000000000000000e+02 1.391154660306931135e+02
3.210000000000000000e+02 1.323045605268618772e+02
3.220000000000000000e+02 1.760155344119484084e+02
3.230000000000000000e+02 1.623313464330155966e+02
3.240000000000000000e+02 1.000009613192300719e+02
3.250000000000000000e+02 7.520178608172540180e+01
3.260000000000000000e+02 1.053384208834507092e+02
3.270000000000000000e+02 7.527417961003990854e+01
3.280000000000000000e+02 2.882088477286929518e+01
3.290000000000000000e+02 2.271516983820789193e+01
3.300000000000000000e+02 2.466345200580808950e+01
3.310000000000000000e+02 2.558930581829450546e+01
3.320000000000000000e+02 7.456454723501370552e+01
3.330000000000000000e+02 3.461840290603568349e+01
3.340000000000000000e+02 4.063590867040033139e+00
3.350000000000000000e+02 2.404473428749270525e+01
3.360000000000000000e+02 4.479556201617931066e+01
3.370000000000000000e+02 1.419374006845017533e+01
3.380000000000000000e+02 1.649724127878098301e+01
3.390000000000000000e+02 2.968078702343915865e+01
3.400000000000000000e+02 6.149885392783517979e+00
3.410000000000000000e+02 3.833190237295197278e+01
3.420000000000000000e+02 1.791027626011017304e+01
3.430000000000000000e+02 5.683474316051400876e+01
3.440000000000000000e+02 2.508499350757168855e+01
3.450000000000000000e+02 2.547734423770959111e+01
3.460000000000000000e+02 2.883265026959771404e+01
3.470000000000000000e+02 4.100287990665830051e+01
3.480000000000000000e+02 6.042097766231060518e+01
3.490000000000000000e+02 6.270622895479051095e+01
3.500000000000000000e+02 3.650862344326880304e+01
3.510000000000000000e+02 4.670561649035474261e+01
3.520000000000000000e+02 2.578554857735308659e+01
3.530000000000000000e+02 1.313190127981747253e+02
3.540000000000000000e+02 1.231187705662721896e+02
3.550000000000000000e+02 8.159593194150662043e+01
3.560000000000000000e+02 5.109989752955778641e+01
3.570000000000000000e+02 4.922196952499509592e+01
3.580000000000000000e+02 5.623115902924732978e+01
3.590000000000000000e+02 5.034302735946843654e+01
3.600000000000000000e+02 9.019094751089072304e+01
3.610000000000000000e+02 5.440736666459316240e+01
3.620000000000000000e+02 2.892641669155739237e+01
3.630000000000000000e+02 4.042318929267659655e+01
3.640000000000000000e+02 3.230876131507996263e+01
3.650000000000000000e+02 8.598827034847472461e+00
3.660000000000000000e+02 2.326961521676004452e+01
3.670000000000000000e+02 9.005091812901947490e-01
3.680000000000000000e+02 2.038852798008705847e+01
3.690000000000000000e+02 1.304069097884696227e+01
3.700000000000000000e+02 4.893724925949106819e+01
3.710000000000000000e+02 9.489114829703373744e+01
3.720000000000000000e+02 8.586451036499363454e+01
3.730000000000000000e+02 7.056147598838359158e+01
3.740000000000000000e+02 3.532126263998338089e+01
3.750000000000000000e+02 3.624148379589260571e+01
3.760000000000000000e+02 4.887837177763926633e+01
3.770000000000000000e+02 3.690700731231883225e+01
3.780000000000000000e+02 1.541898468243068088e+01
3.790000000000000000e+02 4.320099398257941203e+00
3.800000000000000000e+02 3.274471465463605568e+01
3.810000000000000000e+02 4.404731536195811969e+01
3.820000000000000000e+02 4.775363304708535850e+01
3.830000000000000000e+02 9.718043841526690585e+01
3.840000000000000000e+02 1.069048364032358336e+02
3.850000000000000000e+02 1.087421667600085016e+02
3.860000000000000000e+02 1.598093277120929372e+02
3.870000000000000000e+02 8.591752515868164153e+01
3.880000000000000000e+02 6.567229262601071582e+01
3.890000000000000000e+02 4.464992497200179855e+01
3.900000000000000000e+02 4.652279788840431252e+01
3.910000000000000000e+02 4.220770612735540439e+00
3.920000000000000000e+02 9.094207283343628490e+00
3.930000000000000000e+02 8.349331053515902212e+00
3.940000000000000000e+02 1.023615605516375737e+01
3.950000000000000000e+02 3.508654157436197796e+00
3.960000000000000000e+02 1.260156207218408397e+01
3.970000000000000000e+02 2.718934380547447205e+01
3.980000000000000000e+02 6.939143934660856416e+01
3.990000000000000000e+02 1.128197925119267637e+02
4.000000000000000000e+02 1.436701698050601692e+02
4.010000000000000000e+02 1.506874533291846774e+02
4.020000000000000000e+02 1.343831714996888991e+02
4.030000000000000000e+02 2.156609819369568299e+02
4.040000000000000000e+02 1.539259164488664737e+02
4.050000000000000000e+02 8.423678716448861792e+01
4.060000000000000000e+02 1.484533903774349142e+02
4.070000000000000000e+02 2.514200802115767601e+02
4.080000000000000000e+02 3.376365743206819729e+02
4.090000000000000000e+02 4.151829839244955451e+02
4.100000000000000000e+02 5.119207234598604828e+02
4.110000000000000000e+02 6.349112425015543977e+02
4.120000000000000000e+02 7.732743896701914537e+02
4.130000000000000000e+02 9.907461546359641034e+02
4.140000000000000000e+02 1.260902586392858893e+03
4.150000000000000000e+02 1.580159453225471907e+03
4.160000000000000000e+02 1.944830225886743847e+03
4.170000000000000000e+02 2.276106123625800592e+03
4.180000000000000000e+02 2.542798959551962525e+03
4.190000000000000000e+02 2.903747303878864841e+03
4.200000000000000000e+02 3.387606108276290342e+03
4.210000000000000000e+02 3.928871435594285231e+03
4.220000000000000000e+02 4.492808640116166316e+03
4.230000000000000000e+02 5.157687795520530926e+03
4.240000000000000000e+02 5.909104893797987643e+03
4.250000000000000000e+02 6.689108436838847410e+03
4.260000000000000000e+02 7.432821094151805482e+03
4.270000000000000000e+02 8.009393386849193121e+03
4.280000000000000000e+02 8.255846899605889121e+03
4.290000000000000000e+02 8.038027647034423353e+03
4.300000000000000000e+02 7.324300157436228801e+03
4.310000000000000000e+02 6.211114382078427298e+03
4.320000000000000000e+02 5.070272493363751892e+03
4.330000000000000000e+02 3.938779354283348766e+03
4.340000000000000000e+02 2.915532762289989932e+03
4.350000000000000000e+02 2.111080830118226913e+03
4.360000000000000000e+02 1.587468735117193773e+03
4.370000000000000000e+02 1.247793518772039306e+03
4.380000000000000000e+02 1.003364754304082453e+03
4.390000000000000000e+02 7.887275940883605472e+02
4.400000000000000000e+02 5.924409441194759438e+02
4.410000000000000000e+02 4.607395798589503784e+02
4.420000000000000000e+02 4.300702590748803118e+02
4.430000000000000000e+02 3.218987583074025451e+02
4.440000000000000000e+02 2.340911640323588188e+02
4.450000000000000000e+02 2.318853797759802831e+02
4.460000000000000000e+02 2.053346268201609632e+02
4.470000000000000000e+02 1.475460552789884900e+02
4.480000000000000000e+02 1.228354200995644590e+02
4.490000000000000000e+02 1.206351017420157632e+02
4.500000000000000000e+02 1.142685311968471922e+02
4.510000000000000000e+02 8.871264090022850723e+01
4.520000000000000000e+02 3.319702437577787180e+01
4.530000000000000000e+02 5.540075565028038795e+01
4.540000000000000000e+02 6.033246494710643759e+01
4.550000000000000000e+02 9.826809736623964397e+00
4.560000000000000000e+02 1.575520763534549928e+01
4.570000000000000000e+02 3.878854262546623488e+01
4.580000000000000000e+02 3.975517533291825600e+01
4.590000000000000000e+02 2.426439840282069582e+01
4.600000000000000000e+02 6.227313311904049797e+00
4.610000000000000000e+02 6.954189355527908845e+01
4.620000000000000000e+02 4.835754292470476656e+01
4.630000000000000000e+02 6.283289299315465115e+01
4.640000000000000000e+02 1.038523641360710172e+02
4.650000000000000000e+02 1.311499614602774955e+02
4.660000000000000000e+02 1.560016295374404081e+02
4.670000000000000000e+02 1.724274257622899427e+02
4.680000000000000000e+02 2.121160708774109196e+02
4.690000000000000000e+02 1.987415436631392822e+02
4.700000000000000000e+02 1.479132142294130290e+02
4.710000000000000000e+02 2.247998551337896913e+02
4.720000000000000000e+02 2.699503428126951690e+02
4.730000000000000000e+02 3.311055404272983651e+02
4.740000000000000000e+02 3.680229035469820928e+02
4.750000000000000000e+02 3.745325123210936908e+02
4.760000000000000000e+02 4.380872363410094295e+02
4.770000000000000000e+02 4.895326130443803549e+02
4.780000000000000000e+02 5.120930610039407611e+02
4.790000000000000000e+02 5.615300423148701157e+02
4.800000000000000000e+02 6.622861082538379378e+02
4.810000000000000000e+02 7.767976996266320384e+02
4.820000000000000000e+02 9.252941886538040990e+02
4.830000000000000000e+02 9.517083093737039690e+02
4.840000000000000000e+02 1.040684495955195644e+03
4.850000000000000000e+02 1.248139238954572420e+03
4.860000000000000000e+02 1.404404063873912492e+03
4.870000000000000000e+02 1.571376950840076006e+03
4.880000000000000000e+02 1.707520210744658925e+03
4.890000000000000000e+02 1.883989125492641051e+03
4.900000000000000000e+02 2.109416911636592886e+03
4.910000000000000000e+02 2.323278762289983661e+03
4.920000000000000000e+02 2.541022842563781069e+03
4.930000000000000000e+02 2.842899124040663537e+03
4.940000000000000000e+02 3.161424833851903259e+03
4.950000000000000000e+02 3.474170282513995062e+03
4.960000000000000000e+02 3.817784148516896948e+03
4.970000000000000000e+02 4.157077832607345954e+03
4.980000000000000000e+02 4.512563814768716838e+03
4.990000000000000000e+02 4.860433003733660371e+03
5.000000000000000000e+02 5.233711536195801273e+03
5.010000000000000000e+02 5.636261020535157513e+03
5.020000000000000000e+02 5.876176373781371694e+03
5.030000000000000000e+02 6.076936837411861234e+03
5.040000000000000000e+02 6.104297868699439277e+03
5.050000000000000000e+02 6.021312649865173626e+03
5.060000000000000000e+02 5.939687597884694696e+03
5.070000000000000000e+02 5.725547146857494226e+03
5.080000000000000000e+02 5.370447876789043221e+03
5.090000000000000000e+02 4.898332866445464788e+03
5.100000000000000000e+02 4.393377808753358295e+03
5.110000000000000000e+02 3.936654409043758733e+03
5.120000000000000000e+02 3.561912969514728502e+03
5.130000000000000000e+02 3.198165215930310751e+03
5.140000000000000000e+02 2.833469308170884233e+03
5.150000000000000000e+02 2.560325318191247788e+03
5.160000000000000000e+02 2.394753553619582817e+03
5.170000000000000000e+02 2.216946245384775921e+03
5.180000000000000000e+02 2.019105578095828378e+03
5.190000000000000000e+02 1.860838658991908915e+03
5.200000000000000000e+02 1.720233805019706779e+03
5.210000000000000000e+02 1.594329268409045198e+03
5.220000000000000000e+02 1.516866222775360029e+03
5.230000000000000000e+02 1.424536420037337621e+03
5.240000000000000000e+02 1.377459047085667635e+03
5.250000000000000000e+02 1.356278336237295662e+03
5.260000000000000000e+02 1.359733242065961122e+03
5.270000000000000000e+02 1.371455139390168597e+03
5.280000000000000000e+02 1.268714015349516785e+03
5.290000000000000000e+02 1.246245595312176192e+03
5.300000000000000000e+02 1.194803652146858894e+03
5.310000000000000000e+02 1.153420338034010229e+03
5.320000000000000000e+02 1.140263675793402399e+03
5.330000000000000000e+02 9.513443197261971136e+02
5.340000000000000000e+02 9.413001251762741504e+02
5.350000000000000000e+02 9.286042588674532681e+02
5.360000000000000000e+02 8.617227789670171205e+02
5.370000000000000000e+02 7.936742542513495664e+02
5.380000000000000000e+02 7.470647496992346532e+02
5.390000000000000000e+02 6.220470744036559836e+02
5.400000000000000000e+02 6.247445409788446113e+02
5.410000000000000000e+02 5.705943743621701287e+02
5.420000000000000000e+02 4.439226107654011457e+02
5.430000000000000000e+02 4.474227822028630612e+02
5.440000000000000000e+02 3.992285475420053444e+02
5.450000000000000000e+02 3.096950247666479186e+02
5.460000000000000000e+02 2.419391209707528674e+02
5.470000000000000000e+02 2.133407122173822756e+02
5.480000000000000000e+02 2.058759251400124413e+02
5.490000000000000000e+02 2.167267810412780591e+02
5.500000000000000000e+02 2.314505116988179338e+02
5.510000000000000000e+02 2.269397522090848440e+02
5.520000000000000000e+02 2.258626008297027852e+02
5.530000000000000000e+02 2.387382827836551940e+02
5.540000000000000000e+02 2.314158392034838414e+02
5.550000000000000000e+02 1.647250780336065645e+02
5.560000000000000000e+02 1.484532550508190525e+02
5.570000000000000000e+02 1.446519446702600362e+02
5.580000000000000000e+02 1.103185840448053767e+02
5.590000000000000000e+02 5.296667818295153296e+01
5.600000000000000000e+02 1.004917665491424472e+01
5.610000000000000000e+02 8.247273451358790197e+00
5.620000000000000000e+02 2.797743674548824799e+01
5.630000000000000000e+02 3.354444339900432226e+01
5.640000000000000000e+02 2.336766972744356607e+01
5.650000000000000000e+02 1.085895241381462455e+02
5.660000000000000000e+02 1.429960875030656808e+01
5.670000000000000000e+02 6.643349083592792681e+01
5.680000000000000000e+02 1.754842111387311121e+01
5.690000000000000000e+02 7.486454444928796192e+01
5.700000000000000000e+02 6.694396907285317333e+00
5.710000000000000000e+02 9.493031081518442704e+01
5.720000000000000000e+02 7.136004827007059248e+01
5.730000000000000000e+02 3.529006362787806950e+01
5.740000000000000000e+02 2.033781524621603864e+01
5.750000000000000000e+02 1.652123135034210222e+01
5.760000000000000000e+02 1.539380814976151868e+01
5.770000000000000000e+02 2.294687839452383571e+01
5.780000000000000000e+02 1.233830227629092313e+01
5.790000000000000000e+02 1.848875055175299709e+00
5.800000000000000000e+02 2.191120046733080073e+01
5.810000000000000000e+02 1.014220936320279520e+02
5.820000000000000000e+02 7.699714220282210420e+00
5.830000000000000000e+02 4.319890000414756059e+01
5.840000000000000000e+02 1.447361909354996179e+01
5.850000000000000000e+02 2.072266742584753985e+01
5.860000000000000000e+02 1.204150412899222147e+02
5.870000000000000000e+02 1.198353540759166407e+02
5.880000000000000000e+02 6.661497578303141154e+01
5.890000000000000000e+02 6.541002280796453761e+01
5.900000000000000000e+02 8.624803187720405617e+01
5.910000000000000000e+02 9.007730700062185747e+01
5.920000000000000000e+02 1.295916691621743269e+02
5.930000000000000000e+02 1.416751770587015358e+02
5.940000000000000000e+02 1.306357454884878280e+02
5.950000000000000000e+02 1.354597154707594768e+02
5.960000000000000000e+02 1.376983927815795710e+02
5.970000000000000000e+02 9.969150959759386410e+01
5.980000000000000000e+02 1.208056141671872865e+02
5.990000000000000000e+02 2.183776368803170840e+02
6.000000000000000000e+02 2.950609088985690391e+02
6.010000000000000000e+02 2.883465594897305664e+02
6.020000000000000000e+02 2.444789515038375782e+02
6.030000000000000000e+02 2.997091440779923914e+02
6.040000000000000000e+02 4.136348492843829376e+02
6.050000000000000000e+02 4.730771583696331390e+02
6.060000000000000000e+02 5.411247864550922486e+02
6.070000000000000000e+02 6.119925289151627794e+02
6.080000000000000000e+02 6.229651929060360089e+02
6.090000000000000000e+02 6.735813212196636641e+02
6.100000000000000000e+02 8.728639919103943612e+02
6.110000000000000000e+02 1.042938359468990257e+03
6.120000000000000000e+02 1.210053759021152473e+03
6.130000000000000000e+02 1.439675979257417339e+03
6.140000000000000000e+02 1.697242548848785873e+03
6.150000000000000000e+02 2.026758742430526354e+03
6.160000000000000000e+02 2.450605995021781382e+03
6.170000000000000000e+02 2.970774332918478194e+03
6.180000000000000000e+02 3.550141735794276428e+03
6.190000000000000000e+02 4.140771337896701880e+03
6.200000000000000000e+02 4.742574076332704863e+03
6.210000000000000000e+02 5.561597874118625441e+03
6.220000000000000000e+02 6.329252192906033088e+03
6.230000000000000000e+02 7.083205029869312966e+03
6.240000000000000000e+02 7.874611663347854119e+03
6.250000000000000000e+02 8.564383647583494167e+03
6.260000000000000000e+02 8.942877551752751970e+03
6.270000000000000000e+02 9.129121750051855997e+03
6.280000000000000000e+02 9.067080056004981088e+03
6.290000000000000000e+02 8.791152146857506523e+03
6.300000000000000000e+02 8.389146686994403353e+03
6.310000000000000000e+02 7.858795106409468644e+03
6.320000000000000000e+02 7.095844978842585078e+03
6.330000000000000000e+02 6.224641425637843895e+03
6.340000000000000000e+02 5.221805930719789103e+03
6.350000000000000000e+02 4.209230632234004588e+03
6.360000000000000000e+02 3.360582647583500602e+03
6.370000000000000000e+02 2.627001886745496904e+03
6.380000000000000000e+02 2.181202723766077725e+03
6.390000000000000000e+02 1.746511332088775589e+03
6.400000000000000000e+02 1.398345230450112922e+03
6.410000000000000000e+02 1.182081317710499206e+03
6.420000000000000000e+02 1.008459505600500961e+03
6.430000000000000000e+02 9.024407496577453003e+02
6.440000000000000000e+02 8.541367082330995117e+02
6.450000000000000000e+02 7.461410114499105930e+02
6.460000000000000000e+02 6.074304785314296851e+02
6.470000000000000000e+02 5.177662263790973611e+02
6.480000000000000000e+02 5.028991380004146663e+02
6.490000000000000000e+02 5.767916614810175133e+02
6.500000000000000000e+02 5.746695449699233222e+02
6.510000000000000000e+02 5.930378125700050305e+02
6.520000000000000000e+02 6.382094240199121487e+02
6.530000000000000000e+02 6.731016524787388562e+02
6.540000000000000000e+02 7.222388723293921657e+02
6.550000000000000000e+02 8.286957238332294082e+02
6.560000000000000000e+02 9.298647840696969524e+02
6.570000000000000000e+02 9.687088662725574295e+02
6.580000000000000000e+02 1.019858583571875442e+03
6.590000000000000000e+02 1.152697210122376646e+03
6.600000000000000000e+02 1.261715358431864615e+03
6.610000000000000000e+02 1.339436245126501035e+03
6.620000000000000000e+02 1.401568549056210031e+03
6.630000000000000000e+02 1.475568790707319977e+03
6.640000000000000000e+02 1.557588142708979831e+03
6.650000000000000000e+02 1.613734092285358201e+03
6.660000000000000000e+02 1.635198258867454797e+03
6.670000000000000000e+02 1.652280794648413121e+03
6.680000000000000000e+02 1.739035346329324284e+03
6.690000000000000000e+02 1.770624154947105126e+03
6.700000000000000000e+02 1.679653934038579337e+03
6.710000000000000000e+02 1.560259780174205844e+03
6.720000000000000000e+02 1.450634544077996679e+03
6.730000000000000000e+02 1.288370380833845275e+03
6.740000000000000000e+02 1.171720468270430274e+03
6.750000000000000000e+02 1.045477070317368316e+03
6.760000000000000000e+02 8.490923423978526898e+02
6.770000000000000000e+02 6.753961516075535201e+02
6.780000000000000000e+02 5.818074802530626357e+02
6.790000000000000000e+02 4.718204080273836212e+02
6.800000000000000000e+02 3.940838806471692237e+02
6.810000000000000000e+02 2.996704920348492465e+02
6.820000000000000000e+02 1.878832625181502465e+02
6.830000000000000000e+02 1.802730811242482218e+02
6.840000000000000000e+02 1.883290018046047294e+02
6.850000000000000000e+02 1.110437349180658231e+02
6.860000000000000000e+02 7.091000193943172292e+01
6.870000000000000000e+02 7.272407756482029129e+01
6.880000000000000000e+02 8.091328380211655258e+01
6.890000000000000000e+02 1.284902459863085653e+02
6.900000000000000000e+02 6.889403132752293857e+01
6.910000000000000000e+02 3.602520379925360317e+01
6.920000000000000000e+02 5.965695139389993784e+01
6.930000000000000000e+02 8.192234838830187016e+01
6.940000000000000000e+02 6.534095758606416382e+01
6.950000000000000000e+02 6.018839796722674151e+01
6.960000000000000000e+02 5.935656905828670205e+01
6.970000000000000000e+02 3.950743686022403978e+01
6.980000000000000000e+02 1.095866747230872136e+02
6.990000000000000000e+02 1.312350390375436859e+02
7.000000000000000000e+02 4.267343391331299074e+01
7.010000000000000000e+02 5.235303325658561135e+01
7.020000000000000000e+02 9.683391535780257797e+00
7.030000000000000000e+02 3.647530171962203127e+01
7.040000000000000000e+02 2.756851444969689169e+01
7.050000000000000000e+02 1.086236932794000509e+01
7.060000000000000000e+02 1.097105681310782721e+01
7.070000000000000000e+02 4.231698451773581127e+01
7.080000000000000000e+02 5.357861312175851509e+01
7.090000000000000000e+02 1.504073043352042660e+01
7.100000000000000000e+02 3.503632136071300351e+01
7.110000000000000000e+02 3.662386658369682380e+01
7.120000000000000000e+02 2.700783606720596453e+01
7.130000000000000000e+02 4.513420736154322555e+01
7.140000000000000000e+02 3.772782903546984556e+01
7.150000000000000000e+02 5.348956386434402077e+01
7.160000000000000000e+02 8.937054214063556401e+01
7.170000000000000000e+02 1.093924803193694402e+02
7.180000000000000000e+02 1.004729987181077178e+02
7.190000000000000000e+02 9.019185929060388673e+01
7.200000000000000000e+02 1.045108609290749939e+02
7.210000000000000000e+02 8.508950372121876171e+01
7.220000000000000000e+02 6.171761876166736727e+01
7.230000000000000000e+02 3.289659809622479258e+01
7.240000000000000000e+02 8.216448406140209215e+00
7.250000000000000000e+02 2.206602742377099702e+01
7.260000000000000000e+02 4.680104126503364270e+00
7.270000000000000000e+02 5.229617729931542058e+00
7.280000000000000000e+02 3.292020935490520372e+01
7.290000000000000000e+02 1.958312531314692251e+01
7.300000000000000000e+02 1.335471830740512544e+01
7.310000000000000000e+02 7.843277313006065121e+00
7.320000000000000000e+02 7.413440959551854803e+01
7.330000000000000000e+02 1.575592589960708878e+01
7.340000000000000000e+02 5.114264953329178809e+01
7.350000000000000000e+02 2.618939949595457151e+01
7.360000000000000000e+02 4.215010108276239009e+00
7.370000000000000000e+02 1.073011984940881902e+01
7.380000000000000000e+02 3.969984732835546026e+01
7.390000000000000000e+02 5.189659876166771824e+01
7.400000000000000000e+02 3.630841364862072140e+01
7.410000000000000000e+02 4.518565974279154318e+01
7.420000000000000000e+02 8.191600970960385553e+01
7.430000000000000000e+02 1.157773964330157952e+02
7.440000000000000000e+02 1.418749578718104942e+02
7.450000000000000000e+02 8.447549123003521743e+01
7.460000000000000000e+02 1.157226107861444859e+02
7.470000000000000000e+02 1.284134917029660983e+02
7.480000000000000000e+02 7.995379720597432538e+01
7.490000000000000000e+02 3.833107658369637960e+01
7.500000000000000000e+02 6.789163699647369299e+01
7.510000000000000000e+02 1.354248834681596065e+02
7.520000000000000000e+02 1.226602385812069969e+02
7.530000000000000000e+02 6.082337092719391336e+01
7.540000000000000000e+02 4.041068638249297607e+01
7.550000000000000000e+02 6.913248802738023358e+01
7.560000000000000000e+02 6.860359539722075795e+01
7.570000000000000000e+02 8.392241285003809281e+00
7.580000000000000000e+02 3.203616021157450433e+01
7.590000000000000000e+02 1.028747787388509067e+02
7.600000000000000000e+02 1.126216308108676429e+02
7.610000000000000000e+02 6.215054760423204527e+01
7.620000000000000000e+02 2.331920592408167181e+01
7.630000000000000000e+02 6.197900155951862189e+01
7.640000000000000000e+02 5.584014874507365533e+01
7.650000000000000000e+02 9.490714528935785665e+01
7.660000000000000000e+02 1.115173655744506078e+02
7.670000000000000000e+02 1.104683042314869965e+02
7.680000000000000000e+02 1.016304914167194084e+02
7.690000000000000000e+02 5.013826506843668795e+01
7.700000000000000000e+02 9.322540518357081396e+01
7.710000000000000000e+02 1.470309601742381460e+02
7.720000000000000000e+02 9.526473149346635694e+01
7.730000000000000000e+02 7.684392555071531206e+01
7.740000000000000000e+02 1.058877204314459846e+02
7.750000000000000000e+02 7.477883328147677844e+01
7.760000000000000000e+02 8.063946992532694935e+01
7.770000000000000000e+02 1.031264701721636357e+02
7.780000000000000000e+02 9.081834918689123981e+01
7.790000000000000000e+02 8.061587848993973182e+01
7.800000000000000000e+02 9.139792729309327513e+01
7.810000000000000000e+02 1.286336004978204244e+02
7.820000000000000000e+02 1.836747001659396688e+02
7.830000000000000000e+02 1.139137879278191576e+02
7.840000000000000000e+02 1.368659898983598566e+02
7.850000000000000000e+02 1.169647412072201291e+02
7.860000000000000000e+02 7.270873817917961901e+01
7.870000000000000000e+02 5.876787438290798349e+01
7.880000000000000000e+02 6.432098200165961543e+01
7.890000000000000000e+02 4.766636259021151290e+01
7.900000000000000000e+02 6.166991076540146821e+01
7.910000000000000000e+02 3.587496447832356239e+01
7.920000000000000000e+02 1.065178474409014342e+01
7.930000000000000000e+02 2.486691714167314160e+01
7.940000000000000000e+02 7.590350003111429089e+01
7.950000000000000000e+02 4.558846465989279295e+01
7.960000000000000000e+02 6.966430654843246373e+01
7.970000000000000000e+02 7.793258187927817460e+01
7.980000000000000000e+02 6.614161271105560047e+01
7.990000000000000000e+02 1.212155319228338470e+02
8.000000000000000000e+02 1.517209621033045437e+02
8.010000000000000000e+02 2.546935374134091390e+01
8.020000000000000000e+02 6.723707032565817698e+00
8.030000000000000000e+02 2.864702197884035240e+00
8.040000000000000000e+02 7.594293479775979350e+00
8.050000000000000000e+02 1.537932454884882816e+01
8.060000000000000000e+02 1.428896644886952849e+01
8.070000000000000000e+02 2.511355625596284824e+01
8.080000000000000000e+02 1.047359907902966114e+01
8.090000000000000000e+02 1.890572163036740250e+01
8.100000000000000000e+02 6.092798139598104257e+01
8.110000000000000000e+02 7.911810499066513103e+01
8.120000000000000000e+02 6.165084364786351045e+01
8.130000000000000000e+02 3.919586762290159498e+01
8.140000000000000000e+02 1.797735971790269360e+01
8.150000000000000000e+02 5.283582347158905179e+01
8.160000000000000000e+02 5.467270417133365612e+01
8.170000000000000000e+02 6.724477087741134085e+01
8.180000000000000000e+02 2.259638100373366143e+01
8.190000000000000000e+02 1.337906051234185156e+01
8.200000000000000000e+02 4.507107543663133953e+01
8.210000000000000000e+02 3.297970781833211618e+01
8.220000000000000000e+02 1.099314575233379543e+01
8.230000000000000000e+02 1.086878859323813344e+02
8.240000000000000000e+02 7.784765865615533187e+01
8.250000000000000000e+02 5.890990863308019243e+00
8.260000000000000000e+02 7.509991001662310595e+00
8.270000000000000000e+02 5.077834201617520193e+01
8.280000000000000000e+02 2.141140241443714842e+01
8.290000000000000000e+02 1.528307661356411629e+01
8.300000000000000000e+02 7.280339704003176848e+01
8.310000000000000000e+02 1.080698886952912972e+02
8.320000000000000000e+02 1.387538824517732508e+02
8.330000000000000000e+02 1.051536919726205639e+02
8.340000000000000000e+02 5.854397843393547163e+01
8.350000000000000000e+02 1.409461588259709117e+02
8.360000000000000000e+02 1.835018589296829532e+02
8.370000000000000000e+02 1.539857631611683644e+02
8.380000000000000000e+02 1.499860943165323590e+02
8.390000000000000000e+02 1.453789215678137623e+02
8.400000000000000000e+02 1.420289385812079956e+02
8.410000000000000000e+02 1.547282840074673516e+02
8.420000000000000000e+02 1.496737070924922364e+02
8.430000000000000000e+02 1.335867052686168677e+02
8.440000000000000000e+02 1.312076544285417867e+02
8.450000000000000000e+02 1.224048590004144330e+02
8.460000000000000000e+02 1.470836718108268997e+02
8.470000000000000000e+02 1.392340869321727723e+02
8.480000000000000000e+02 1.160532108668604678e+02
8.490000000000000000e+02 2.529511143331271512e+02
8.500000000000000000e+02 3.265616719352834139e+02
8.510000000000000000e+02 2.330491559311451795e+02
8.520000000000000000e+02 2.751122891931152026e+02
8.530000000000000000e+02 2.766948870358830277e+02
8.540000000000000000e+02 2.421286822236073988e+02
8.550000000000000000e+02 2.899155300560045703e+02
8.560000000000000000e+02 2.660496036714372394e+02
8.570000000000000000e+02 2.602520970130676119e+02
8.580000000000000000e+02 2.420877565235423958e+02
8.590000000000000000e+02 2.227845196639699452e+02
8.600000000000000000e+02 2.183407153080272565e+02
8.610000000000000000e+02 2.228686716448869163e+02
8.620000000000000000e+02 2.186023120099563641e+02
8.630000000000000000e+02 2.076202318813523959e+02
8.640000000000000000e+02 2.172821768512756648e+02
8.650000000000000000e+02 2.155649573739887899e+02
8.660000000000000000e+02 1.646601440157635352e+02
8.670000000000000000e+02 1.465279785314253331e+02
8.680000000000000000e+02 1.890874935711325122e+02
8.690000000000000000e+02 2.314812723086500057e+02
8.700000000000000000e+02 2.358743453640321945e+02
8.710000000000000000e+02 1.939942567814184713e+02
8.720000000000000000e+02 2.704447981953960038e+02
8.730000000000000000e+02 2.990487323584318347e+02
8.740000000000000000e+02 3.349140512028209287e+02
8.750000000000000000e+02 3.506483691557765496e+02
8.760000000000000000e+02 3.162504250985272733e+02
8.770000000000000000e+02 3.506441992948986126e+02
8.780000000000000000e+02 3.495901034847542519e+02
8.790000000000000000e+02 2.865265071354492079e+02
8.800000000000000000e+02 2.816296107861440987e+02
8.810000000000000000e+02 2.841855859780129094e+02
8.820000000000000000e+02 2.983777481020529194e+02
8.830000000000000000e+02 3.417790790292471002e+02
8.840000000000000000e+02 3.649814071147063146e+02
8.850000000000000000e+02 4.012105948143532146e+02
8.860000000000000000e+02 4.470760012860401957e+02
8.870000000000000000e+02 4.160212163036720199e+02
8.880000000000000000e+02 4.143917954158880548e+02
8.890000000000000000e+02 4.900734514001239859e+02
8.900000000000000000e+02 5.559901862061809652e+02
8.910000000000000000e+02 5.436638513378969719e+02
8.920000000000000000e+02 5.543004642190414870e+02
8.930000000000000000e+02 6.010562015764361377e+02
8.940000000000000000e+02 6.173383661551217756e+02
8.950000000000000000e+02 6.542118204107036945e+02
8.960000000000000000e+02 6.665457838830116089e+02
8.970000000000000000e+02 6.619648189755281464e+02
8.980000000000000000e+02 7.036130583074040032e+02
8.990000000000000000e+02 7.537042518357186509e+02
9.000000000000000000e+02 7.077467523849031750e+02
9.010000000000000000e+02 7.475307154947091703e+02
9.020000000000000000e+02 7.624243488073018398e+02
9.030000000000000000e+02 7.678021737660717463e+02
9.040000000000000000e+02 7.627274285832821761e+02
9.050000000000000000e+02 7.104353957062869540e+02
9.060000000000000000e+02 6.611377902924702994e+02
9.070000000000000000e+02 6.787693603401778546e+02
9.080000000000000000e+02 7.179737392034843424e+02
9.090000000000000000e+02 7.138641071354488759e+02
9.100000000000000000e+02 6.794512799626631931e+02
9.110000000000000000e+02 6.453104974901470996e+02
9.120000000000000000e+02 6.171653059323788284e+02
9.130000000000000000e+02 6.049721623729512885e+02
9.140000000000000000e+02 5.810681005600490607e+02
9.150000000000000000e+02 5.417625454884891951e+02
9.160000000000000000e+02 4.672577792159329988e+02
9.170000000000000000e+02 5.389884423563652263e+02
9.180000000000000000e+02 5.458118309271964108e+02
9.190000000000000000e+02 4.532672322339795414e+02
9.200000000000000000e+02 4.298773095603484080e+02
9.210000000000000000e+02 4.192135897531648538e+02
9.220000000000000000e+02 3.524346511304710816e+02
9.230000000000000000e+02 3.816956661136453022e+02
9.240000000000000000e+02 3.758303082762912481e+02
9.250000000000000000e+02 2.708024576021575172e+02
9.260000000000000000e+02 2.363006733098308132e+02
9.270000000000000000e+02 2.949052542211157402e+02
9.280000000000000000e+02 2.581689477909141033e+02
9.290000000000000000e+02 2.328113034425563228e+02
9.300000000000000000e+02 1.753159656917632390e+02
9.310000000000000000e+02 1.925929193528331211e+02
9.320000000000000000e+02 1.999763731854005755e+02
9.330000000000000000e+02 1.523858235220944835e+02
9.340000000000000000e+02 9.276632315701974107e+01
9.350000000000000000e+02 6.522309323376978796e+01
9.360000000000000000e+02 6.059289723293758101e+01
9.370000000000000000e+02 1.257610721841928552e+02
9.380000000000000000e+02 1.393020586807717223e+02
9.390000000000000000e+02 1.050484370524790592e+02
9.400000000000000000e+02 9.848285592200774374e+01
9.410000000000000000e+02 8.256171072806390043e+01
9.420000000000000000e+02 3.816690978842520110e+01
9.430000000000000000e+02 1.571200018460877246e+01
9.440000000000000000e+02 2.798096126114564264e+00
9.450000000000000000e+02 6.201669160718149554e-01
9.460000000000000000e+02 1.858938128811552293e+00
9.470000000000000000e+02 6.435081050404421354e+00
9.480000000000000000e+02 2.200278481642976658e+01
9.490000000000000000e+02 2.563767134819413229e+01
9.500000000000000000e+02 1.400316991703031988e+01
9.510000000000000000e+02 2.061704164405893280e+01
9.520000000000000000e+02 2.217112892990405015e+01
9.530000000000000000e+02 4.373648270275788263e+01
9.540000000000000000e+02 4.302618277535823665e+01
9.550000000000000000e+02 2.357088494608045437e+01
9.560000000000000000e+02 6.049099459862993022e+00
9.570000000000000000e+02 1.897715403111407539e+01
9.580000000000000000e+02 7.543816975114174284e+01
9.590000000000000000e+02 7.689345727857254076e+01
9.600000000000000000e+02 2.205748492221514212e+01
9.610000000000000000e+02 2.688880662725611970e+01
9.620000000000000000e+02 2.908861752126028222e+01
9.630000000000000000e+02 2.885141817672847253e+01
9.640000000000000000e+02 8.382690834681686454e+01
9.650000000000000000e+02 1.171698968886141046e+02
9.660000000000000000e+02 1.137743210537215646e+02
9.670000000000000000e+02 2.056098656502853572e+01
9.680000000000000000e+02 5.237023815805780202e+01
9.690000000000000000e+02 5.704668505289355096e+01
9.700000000000000000e+02 8.410133428126951571e+01
9.710000000000000000e+02 7.790908309064506909e+01
9.720000000000000000e+02 5.786126454470027625e+01
9.730000000000000000e+02 6.053893851897971956e+01
9.740000000000000000e+02 7.777885945239583521e+01
9.750000000000000000e+02 6.406995394442063230e+01
9.760000000000000000e+02 1.488074254926351969e+01
9.770000000000000000e+02 2.911211789877646083e+01
9.780000000000000000e+02 1.219721397345494474e+01
9.790000000000000000e+02 2.439701561294345922e+01
9.800000000000000000e+02 1.295737454698203628e+01
9.810000000000000000e+02 3.625514259228619096e+01
9.820000000000000000e+02 1.097497815390997999e+02
9.830000000000000000e+02 7.918093966397009353e+01
9.840000000000000000e+02 1.191304622335136969e+02
9.850000000000000000e+02 1.658367605476040580e+02
9.860000000000000000e+02 1.472515221530803444e+02
9.870000000000000000e+02 1.646311962041075674e+02
9.880000000000000000e+02 1.897419075295582331e+02
9.890000000000000000e+02 2.038061131093132872e+02
9.900000000000000000e+02 2.282068381456131476e+02
9.910000000000000000e+02 2.679531787017842248e+02
9.920000000000000000e+02 3.459390366521471947e+02
9.930000000000000000e+02 3.382998073428749990e+02
9.940000000000000000e+02 4.311213614810233707e+02
9.950000000000000000e+02 5.713288659614204335e+02
9.960000000000000000e+02 6.152322567517111338e+02
9.970000000000000000e+02 6.515847684505281450e+02
9.980000000000000000e+02 7.906399621655243664e+02
9.990000000000000000e+02 9.297517187512961527e+02
1.000000000000000000e+03 9.151749998341636001e+02
1.001000000000000000e+03 1.024738771784223218e+03
1.002000000000000000e+03 1.221718821576765322e+03
1.003000000000000000e+03 1.496131518672187212e+03
1.004000000000000000e+03 1.656368807053942191e+03
1.005000000000000000e+03 1.809524078838170226e+03
1.006000000000000000e+03 2.074368190871367915e+03
1.007000000000000000e+03 2.396936894190867861e+03
1.008000000000000000e+03 2.828786420289854505e+03
1.009000000000000000e+03 3.195072784232374033e+03
1.010000000000000000e+03 3.710790983402472193e+03
1.011000000000000000e+03 4.287037576763502329e+03
1.012000000000000000e+03 5.006422506224047538e+03
1.013000000000000000e+03 5.909356811203271718e+03
1.014000000000000000e+03 6.958068578838181566e+03
1.015000000000000000e+03 8.206841298755114622e+03
1.016000000000000000e+03 9.757221014492748509e+03
1.017000000000000000e+03 1.130096634854769036e+04
1.018000000000000000e+03 1.322686867219918349e+04
1.019000000000000000e+03 1.535398643153524972e+04
1.020000000000000000e+03 1.761235049792530481e+04
1.021000000000000000e+03 2.010178157676354385e+04
1.022000000000000000e+03 2.275171898340240659e+04
1.023000000000000000e+03 2.531603985477185415e+04
1.024000000000000000e+03 2.768817740663894438e+04
1.025000000000000000e+03 2.997737983402502505e+04
1.026000000000000000e+03 3.188323161825709394e+04
1.027000000000000000e+03 3.372708165975097654e+04
1.028000000000000000e+03 3.472560626556017087e+04
1.029000000000000000e+03 3.522091095435685565e+04
1.030000000000000000e+03 3.491043626556023810e+04
1.031000000000000000e+03 3.379508618257262424e+04
1.032000000000000000e+03 3.213066506224055047e+04
1.033000000000000000e+03 2.973649768115937331e+04
1.034000000000000000e+03 2.715011751037353315e+04
1.035000000000000000e+03 2.424245178423228208e+04
1.036000000000000000e+03 2.127966244813251978e+04
1.037000000000000000e+03 1.829790459627347082e+04
1.038000000000000000e+03 1.556686244813276608e+04
1.039000000000000000e+03 1.309305721991685277e+04
1.040000000000000000e+03 1.080976709543589095e+04
1.041000000000000000e+03 8.845132913043544249e+03
1.042000000000000000e+03 7.252912062240597152e+03
1.043000000000000000e+03 5.800439149377519243e+03
1.044000000000000000e+03 4.703008987551930659e+03
1.045000000000000000e+03 3.739054008298757708e+03
1.046000000000000000e+03 3.018584921161777856e+03
1.047000000000000000e+03 2.426921665975153246e+03
1.048000000000000000e+03 1.961173261410796840e+03
1.049000000000000000e+03 1.606689257261397415e+03
1.050000000000000000e+03 1.264947800829887456e+03
1.051000000000000000e+03 1.029565958506235575e+03
1.052000000000000000e+03 7.804871219916985865e+02
1.053000000000000000e+03 7.366836580912851105e+02
1.054000000000000000e+03 6.416500043568579486e+02
1.055000000000000000e+03 4.612964535269724138e+02
1.056000000000000000e+03 4.103403159751073872e+02
1.057000000000000000e+03 4.587315701244821184e+02
1.058000000000000000e+03 4.831058398340232998e+02
1.059000000000000000e+03 5.355606676348562587e+02
1.060000000000000000e+03 5.978645261410856619e+02
1.061000000000000000e+03 6.860702979253037483e+02
1.062000000000000000e+03 7.834570262939953409e+02
1.063000000000000000e+03 8.943919352697181466e+02
1.064000000000000000e+03 1.086552012448122468e+03
1.065000000000000000e+03 1.464293487551847647e+03
1.066000000000000000e+03 1.715921022774330140e+03
1.067000000000000000e+03 1.765608207468890669e+03
1.068000000000000000e+03 1.994609846473009156e+03
1.069000000000000000e+03 2.320082419087135804e+03
1.070000000000000000e+03 2.685885530020726037e+03
1.071000000000000000e+03 3.047248145228184057e+03
1.072000000000000000e+03 3.417063865145218642e+03
1.073000000000000000e+03 3.754137151452292528e+03
1.074000000000000000e+03 4.049064204968942249e+03
1.075000000000000000e+03 4.370004286307036637e+03
1.076000000000000000e+03 4.690635647302907273e+03
1.077000000000000000e+03 4.945197385892135571e+03
1.078000000000000000e+03 5.201135732919247857e+03
1.079000000000000000e+03 5.370540363070537751e+03
1.080000000000000000e+03 5.492514769709549000e+03
1.081000000000000000e+03 5.602701908713695047e+03
1.082000000000000000e+03 5.573296031055903768e+03
1.083000000000000000e+03 5.575078344398340960e+03
1.084000000000000000e+03 5.530236684647289621e+03
1.085000000000000000e+03 5.395869352697103750e+03
1.086000000000000000e+03 5.298934502074690499e+03
1.087000000000000000e+03 5.222863062240659019e+03
1.088000000000000000e+03 5.137257014522821009e+03
1.089000000000000000e+03 5.003162840248967768e+03
1.090000000000000000e+03 4.904751769709541804e+03
1.091000000000000000e+03 4.827371045643145408e+03
1.092000000000000000e+03 4.652773074688810993e+03
1.093000000000000000e+03 4.435932178423237019e+03
1.094000000000000000e+03 4.305313651452277554e+03
1.095000000000000000e+03 4.215921875518690285e+03
1.096000000000000000e+03 4.048087261410789779e+03
1.097000000000000000e+03 3.982687329875512205e+03
1.098000000000000000e+03 3.769890867219911343e+03
1.099000000000000000e+03 3.628688271221539708e+03
1.100000000000000000e+03 3.520134788381742055e+03
1.101000000000000000e+03 3.425904829875511950e+03
1.102000000000000000e+03 3.296693518672213941e+03
1.103000000000000000e+03 3.117907927536236002e+03
1.104000000000000000e+03 3.000760213692944944e+03
1.105000000000000000e+03 2.951464219917020273e+03
1.106000000000000000e+03 2.745366923236529146e+03
1.107000000000000000e+03 2.470596124223596689e+03
1.108000000000000000e+03 2.410306721991691575e+03
1.109000000000000000e+03 2.253128568464750515e+03
1.110000000000000000e+03 1.977101182572619791e+03
1.111000000000000000e+03 1.768240180124216749e+03
1.112000000000000000e+03 1.615876535269725991e+03
1.113000000000000000e+03 1.463880153526976983e+03
1.114000000000000000e+03 1.268968522821572151e+03
1.115000000000000000e+03 1.087747502074688100e+03
1.116000000000000000e+03 1.088156572614113429e+03
1.117000000000000000e+03 9.091408348547728338e+02
1.118000000000000000e+03 7.842680344398272609e+02
1.119000000000000000e+03 6.152771829875650837e+02
1.120000000000000000e+03 5.312891707468893401e+02
1.121000000000000000e+03 4.409214736514485367e+02
1.122000000000000000e+03 3.760338350622393477e+02
1.123000000000000000e+03 3.629312598343692002e+02
1.124000000000000000e+03 3.254592809128621980e+02
1.125000000000000000e+03 2.401022526970906199e+02
1.126000000000000000e+03 1.967734958506205203e+02
1.127000000000000000e+03 2.038849394190895055e+02
1.128000000000000000e+03 6.491814105589661210e+01
1.129000000000000000e+03 3.584274927385862952e+01
1.130000000000000000e+03 1.058980866182741565e+01
1.131000000000000000e+03 9.157476470954341252e+00
1.132000000000000000e+03 9.303164824018368861e+00
1.133000000000000000e+03 1.736564450622237388e+01
1.134000000000000000e+03 4.732627730290473522e+01
1.135000000000000000e+03 2.137856962655888537e+01
1.136000000000000000e+03 6.936569572614811818e+01
1.137000000000000000e+03 5.241589821577312236e+00
1.138000000000000000e+03 1.895002412863107466e+01
1.139000000000000000e+03 3.546362392116253659e+01
1.140000000000000000e+03 4.268894565217367898e+01
1.141000000000000000e+03 3.506258020746896165e+01
1.142000000000000000e+03 5.227781701245066159e+01
1.143000000000000000e+03 2.239021379253363619e+01
1.144000000000000000e+03 1.751986568464942451e+01
1.145000000000000000e+03 9.447405894191079767e+01
1.146000000000000000e+03 1.105003568464734371e+02
1.147000000000000000e+03 1.013036460580926530e+02
1.148000000000000000e+03 6.265152201244873709e+01
1.149000000000000000e+03 5.029663456431609347e+01
1.150000000000000000e+03 7.492054763485531055e+01
1.151000000000000000e+03 3.161875314523066294e+01
1.152000000000000000e+03 7.736020128365042048e+00
1.153000000000000000e+03 1.058923355186887605e+01
1.154000000000000000e+03 3.098788564315714922e+01
1.155000000000000000e+03 2.662500000000000000e+01
1.156000000000000000e+03 2.969907213692463444e+01
1.157000000000000000e+03 8.835673008297935382e+01
1.158000000000000000e+03 1.312651269709540429e+02
1.159000000000000000e+03 1.087420414937745079e+02
1.160000000000000000e+03 4.264902493775267089e+01
1.161000000000000000e+03 1.224149804347762824e+02
1.162000000000000000e+03 9.617987807053800964e+01
1.163000000000000000e+03 7.364345240664479775e+01
1.164000000000000000e+03 1.403127006224026729e+02
1.165000000000000000e+03 1.278875009128639135e+02
1.166000000000000000e+03 7.829095767635439529e+01
1.167000000000000000e+03 1.702491979253108809e+02
1.168000000000000000e+03 1.236490622406657423e+02
1.169000000000000000e+03 1.292811269151142994e+02
1.170000000000000000e+03 1.549740790456460218e+02
1.171000000000000000e+03 2.020377692946017021e+02
1.172000000000000000e+03 2.548725313278000328e+02
1.173000000000000000e+03 2.542485114107865343e+02
1.174000000000000000e+03 3.306397730290342452e+02
1.175000000000000000e+03 4.173359672199164265e+02
1.176000000000000000e+03 4.084982804979273965e+02
1.177000000000000000e+03 4.810444927536225919e+02
1.178000000000000000e+03 4.959455526970893970e+02
1.179000000000000000e+03 5.883188124481328032e+02
1.180000000000000000e+03 5.548205717842341755e+02
1.181000000000000000e+03 7.012490285714339961e+02
1.182000000000000000e+03 7.843267365145217127e+02
1.183000000000000000e+03 8.992930203319560860e+02
1.184000000000000000e+03 9.419590344398305888e+02
1.185000000000000000e+03 9.606450522821527329e+02
1.186000000000000000e+03 1.124360292531123605e+03
1.187000000000000000e+03 1.333036354771796141e+03
1.188000000000000000e+03 1.457331224066378127e+03
1.189000000000000000e+03 1.659403294605803012e+03
1.190000000000000000e+03 1.846218672199178627e+03
1.191000000000000000e+03 2.024424863070558786e+03
1.192000000000000000e+03 2.328724647302887661e+03
1.193000000000000000e+03 2.596772278008299963e+03
1.194000000000000000e+03 2.837833865145250002e+03
1.195000000000000000e+03 3.068355257261393945e+03
1.196000000000000000e+03 3.280589041493772584e+03
1.197000000000000000e+03 3.540711041493789708e+03
1.198000000000000000e+03 3.797278285714279264e+03
1.199000000000000000e+03 3.911819962655597919e+03
1.200000000000000000e+03 3.961936427385891875e+03
1.201000000000000000e+03 3.862789950207459697e+03
1.202000000000000000e+03 3.753729887966814204e+03
1.203000000000000000e+03 3.620276585062241338e+03
1.204000000000000000e+03 3.294895524896246570e+03
1.205000000000000000e+03 3.020592504149359684e+03
1.206000000000000000e+03 2.702946140786764772e+03
1.207000000000000000e+03 2.410727161825718213e+03
1.208000000000000000e+03 2.100032024896222538e+03
1.209000000000000000e+03 1.762523838174288358e+03
1.210000000000000000e+03 1.598796188405796556e+03
1.211000000000000000e+03 1.425376290456415973e+03
1.212000000000000000e+03 1.214085437759340948e+03
1.213000000000000000e+03 1.151601078838176363e+03
1.214000000000000000e+03 1.016752022821572496e+03
1.215000000000000000e+03 8.540187618257081112e+02
1.216000000000000000e+03 7.159738414937819471e+02
1.217000000000000000e+03 6.186161863070535674e+02
1.218000000000000000e+03 5.628634485477157341e+02
1.219000000000000000e+03 5.305563402489651708e+02
1.220000000000000000e+03 4.910242242738599998e+02
1.221000000000000000e+03 4.847750790456462937e+02
1.222000000000000000e+03 5.260385751037345017e+02
1.223000000000000000e+03 4.538801103734481330e+02
1.224000000000000000e+03 3.489095726141060254e+02
1.225000000000000000e+03 2.806209419087111314e+02
1.226000000000000000e+03 3.072463074688752727e+02
1.227000000000000000e+03 3.851774507246372536e+02
1.228000000000000000e+03 2.760588082987450775e+02
1.229000000000000000e+03 1.866866282157729131e+02
1.230000000000000000e+03 2.157218209543534613e+02
1.231000000000000000e+03 2.741758438923399126e+02
1.232000000000000000e+03 2.697116157676319403e+02
1.233000000000000000e+03 2.086745161825772641e+02
1.234000000000000000e+03 1.839856962655596817e+02
1.235000000000000000e+03 2.332130217391325573e+02
1.236000000000000000e+03 2.318418224066441553e+02
1.237000000000000000e+03 1.505552039419101220e+02
1.238000000000000000e+03 1.841880124481335201e+02
1.239000000000000000e+03 1.200002142857200909e+02
1.240000000000000000e+03 1.352445655601629539e+02
1.241000000000000000e+03 1.059818668049789352e+02
1.242000000000000000e+03 1.025103717012470099e+02
1.243000000000000000e+03 1.181890376811604142e+02
1.244000000000000000e+03 1.340837176348539401e+02
1.245000000000000000e+03 1.308606315352641900e+02
1.246000000000000000e+03 5.302128060166093348e+01
1.247000000000000000e+03 7.460866004140889629e+01
1.248000000000000000e+03 4.578125834024841367e+01
1.249000000000000000e+03 2.758027556016590154e+01
1.250000000000000000e+03 3.991620481327907299e+01
1.251000000000000000e+03 1.350462272199096603e+01
1.252000000000000000e+03 2.029256938589512060e+01
1.253000000000000000e+03 7.010232340248711580e+01
1.254000000000000000e+03 1.138807457468855944e+02
1.255000000000000000e+03 6.904310479253017263e+01
1.256000000000000000e+03 3.445610898550877721e+01
1.257000000000000000e+03 8.383975248962377691e+01
1.258000000000000000e+03 1.016170040663904217e+02
1.259000000000000000e+03 7.967576319502082072e+01
1.260000000000000000e+03 7.642236398340583037e+01
1.261000000000000000e+03 6.399202678423031188e+01
1.262000000000000000e+03 1.357108286307057767e+02
1.263000000000000000e+03 8.728083510372829323e+01
1.264000000000000000e+03 3.954269269709612189e+01
1.265000000000000000e+03 1.366762921161829070e+02
1.266000000000000000e+03 7.737738149376598074e+01
1.267000000000000000e+03 1.084693405809047277e+02
1.268000000000000000e+03 1.772847273291921510e+02
1.269000000000000000e+03 1.425836020746864392e+02
1.270000000000000000e+03 9.733763481327683564e+01
1.271000000000000000e+03 9.570376443983280979e+01
1.272000000000000000e+03 9.183196198757774198e+01
1.273000000000000000e+03 2.368600941078328148e+01
1.274000000000000000e+03 1.655001578422843167e+01
1.275000000000000000e+03 1.022580643153520441e+02
1.276000000000000000e+03 5.760644285714002422e+01
1.277000000000000000e+03 3.767551846473026700e+01
1.278000000000000000e+03 4.698579912863057473e+01
1.279000000000000000e+03 2.655988375518709432e+01
1.280000000000000000e+03 9.679057379669602312e+01
1.281000000000000000e+03 1.390952369294690811e+02
1.282000000000000000e+03 7.923564103734470621e+01
1.283000000000000000e+03 7.277218568464685688e+01
1.284000000000000000e+03 4.427820244812843953e+01
1.285000000000000000e+03 2.425258248962387597e+01
1.286000000000000000e+03 7.641859356846526907e+01
1.287000000000000000e+03 9.063751674273970593e+01
1.288000000000000000e+03 8.936699145228553220e+01
1.289000000000000000e+03 1.690096651452272880e+01
1.290000000000000000e+03 6.063225053941285303e+00
1.291000000000000000e+03 3.729158435684584560e+01
1.292000000000000000e+03 6.944058564315265869e+01
1.293000000000000000e+03 7.724892062240665780e+01
1.294000000000000000e+03 5.302178338173749239e+01
1.295000000000000000e+03 5.136205143153442521e+01
1.296000000000000000e+03 5.436570039419088829e+01
1.297000000000000000e+03 2.533897236514102147e+01
1.298000000000000000e+03 0.000000000000000000e+00
1.299000000000000000e+03 0.000000000000000000e+00
1.300000000000000000e+03 0.000000000000000000e+00
1.301000000000000000e+03 0.000000000000000000e+00
1.302000000000000000e+03 0.000000000000000000e+00
1.303000000000000000e+03 0.000000000000000000e+00
1.304000000000000000e+03 0.000000000000000000e+00
1.305000000000000000e+03 0.000000000000000000e+00
1.306000000000000000e+03 0.000000000000000000e+00
1.307000000000000000e+03 0.000000000000000000e+00
1.308000000000000000e+03 0.000000000000000000e+00
1.309000000000000000e+03 0.000000000000000000e+00
1.310000000000000000e+03 0.000000000000000000e+00
1.311000000000000000e+03 0.000000000000000000e+00
1.312000000000000000e+03 0.000000000000000000e+00
1.313000000000000000e+03 0.000000000000000000e+00
1.314000000000000000e+03 0.000000000000000000e+00
1.315000000000000000e+03 0.000000000000000000e+00
1.316000000000000000e+03 0.000000000000000000e+00
1.317000000000000000e+03 0.000000000000000000e+00
1.318000000000000000e+03 0.000000000000000000e+00
1.319000000000000000e+03 0.000000000000000000e+00
1.320000000000000000e+03 0.000000000000000000e+00
1.321000000000000000e+03 0.000000000000000000e+00
1.322000000000000000e+03 0.000000000000000000e+00
1.323000000000000000e+03 0.000000000000000000e+00
1.324000000000000000e+03 0.000000000000000000e+00
1.325000000000000000e+03 0.000000000000000000e+00
1.326000000000000000e+03 0.000000000000000000e+00
1.327000000000000000e+03 0.000000000000000000e+00
1.328000000000000000e+03 0.000000000000000000e+00
1.329000000000000000e+03 0.000000000000000000e+00
1.330000000000000000e+03 0.000000000000000000e+00
1.331000000000000000e+03 0.000000000000000000e+00
1.332000000000000000e+03 0.000000000000000000e+00
1.333000000000000000e+03 0.000000000000000000e+00
1.334000000000000000e+03 0.000000000000000000e+00
1.335000000000000000e+03 0.000000000000000000e+00
1.336000000000000000e+03 0.000000000000000000e+00
1.337000000000000000e+03 0.000000000000000000e+00
1.338000000000000000e+03 0.000000000000000000e+00
1.339000000000000000e+03 0.000000000000000000e+00
1.340000000000000000e+03 0.000000000000000000e+00
1.341000000000000000e+03 0.000000000000000000e+00
1.342000000000000000e+03 0.000000000000000000e+00
1.343000000000000000e+03 0.000000000000000000e+00
1.344000000000000000e+03 0.000000000000000000e+00
1.345000000000000000e+03 0.000000000000000000e+00
1.346000000000000000e+03 0.000000000000000000e+00
1.347000000000000000e+03 0.000000000000000000e+00
1.348000000000000000e+03 0.000000000000000000e+00
1.349000000000000000e+03 0.000000000000000000e+00
1.350000000000000000e+03 0.000000000000000000e+00
1.351000000000000000e+03 0.000000000000000000e+00
1.352000000000000000e+03 0.000000000000000000e+00
1.353000000000000000e+03 0.000000000000000000e+00
1.354000000000000000e+03 0.000000000000000000e+00
1.355000000000000000e+03 0.000000000000000000e+00
1.356000000000000000e+03 0.000000000000000000e+00
1.357000000000000000e+03 0.000000000000000000e+00
1.358000000000000000e+03 0.000000000000000000e+00
1.359000000000000000e+03 0.000000000000000000e+00
1.360000000000000000e+03 0.000000000000000000e+00
1.361000000000000000e+03 0.000000000000000000e+00
1.362000000000000000e+03 0.000000000000000000e+00
1.363000000000000000e+03 0.000000000000000000e+00
1.364000000000000000e+03 0.000000000000000000e+00
1.365000000000000000e+03 0.000000000000000000e+00
1.366000000000000000e+03 0.000000000000000000e+00
1.367000000000000000e+03 0.000000000000000000e+00
1.368000000000000000e+03 0.000000000000000000e+00
1.369000000000000000e+03 0.000000000000000000e+00
1.370000000000000000e+03 0.000000000000000000e+00
1.371000000000000000e+03 0.000000000000000000e+00
1.372000000000000000e+03 0.000000000000000000e+00
1.373000000000000000e+03 0.000000000000000000e+00
1.374000000000000000e+03 0.000000000000000000e+00
1.375000000000000000e+03 0.000000000000000000e+00
1.376000000000000000e+03 0.000000000000000000e+00
1.377000000000000000e+03 0.000000000000000000e+00
1.378000000000000000e+03 0.000000000000000000e+00
1.379000000000000000e+03 0.000000000000000000e+00
1.380000000000000000e+03 0.000000000000000000e+00
1.381000000000000000e+03 0.000000000000000000e+00
1.382000000000000000e+03 0.000000000000000000e+00
1.383000000000000000e+03 0.000000000000000000e+00
1.384000000000000000e+03 0.000000000000000000e+00
1.385000000000000000e+03 0.000000000000000000e+00
1.386000000000000000e+03 0.000000000000000000e+00
1.387000000000000000e+03 0.000000000000000000e+00
1.388000000000000000e+03 0.000000000000000000e+00
1.389000000000000000e+03 0.000000000000000000e+00
1.390000000000000000e+03 0.000000000000000000e+00
1.391000000000000000e+03 0.000000000000000000e+00
1.392000000000000000e+03 0.000000000000000000e+00
1.393000000000000000e+03 0.000000000000000000e+00
1.394000000000000000e+03 0.000000000000000000e+00
1.395000000000000000e+03 0.000000000000000000e+00
1.396000000000000000e+03 0.000000000000000000e+00
1.397000000000000000e+03 0.000000000000000000e+00
1.398000000000000000e+03 0.000000000000000000e+00
1.399000000000000000e+03 0.000000000000000000e+00
1.400000000000000000e+03 0.000000000000000000e+00
1.401000000000000000e+03 0.000000000000000000e+00
1.402000000000000000e+03 0.000000000000000000e+00
1.403000000000000000e+03 0.000000000000000000e+00
1.404000000000000000e+03 0.000000000000000000e+00
1.405000000000000000e+03 0.000000000000000000e+00
1.406000000000000000e+03 0.000000000000000000e+00
1.407000000000000000e+03 0.000000000000000000e+00
1.408000000000000000e+03 0.000000000000000000e+00
1.409000000000000000e+03 0.000000000000000000e+00
1.410000000000000000e+03 0.000000000000000000e+00
1.411000000000000000e+03 0.000000000000000000e+00
1.412000000000000000e+03 0.000000000000000000e+00
1.413000000000000000e+03 0.000000000000000000e+00
1.414000000000000000e+03 0.000000000000000000e+00
1.415000000000000000e+03 0.000000000000000000e+00
1.416000000000000000e+03 0.000000000000000000e+00
1.417000000000000000e+03 0.000000000000000000e+00
1.418000000000000000e+03 0.000000000000000000e+00
1.419000000000000000e+03 0.000000000000000000e+00
1.420000000000000000e+03 0.000000000000000000e+00
1.421000000000000000e+03 0.000000000000000000e+00
1.422000000000000000e+03 0.000000000000000000e+00
1.423000000000000000e+03 0.000000000000000000e+00
1.424000000000000000e+03 0.000000000000000000e+00
1.425000000000000000e+03 0.000000000000000000e+00
1.426000000000000000e+03 0.000000000000000000e+00
1.427000000000000000e+03 0.000000000000000000e+00
1.428000000000000000e+03 0.000000000000000000e+00
1.429000000000000000e+03 0.000000000000000000e+00
1.430000000000000000e+03 0.000000000000000000e+00
1.431000000000000000e+03 0.000000000000000000e+00
1.432000000000000000e+03 0.000000000000000000e+00
1.433000000000000000e+03 0.000000000000000000e+00
1.434000000000000000e+03 0.000000000000000000e+00
1.435000000000000000e+03 0.000000000000000000e+00
1.436000000000000000e+03 0.000000000000000000e+00
1.437000000000000000e+03 0.000000000000000000e+00
1.438000000000000000e+03 0.000000000000000000e+00
1.439000000000000000e+03 0.000000000000000000e+00
1.440000000000000000e+03 0.000000000000000000e+00
1.441000000000000000e+03 0.000000000000000000e+00
1.442000000000000000e+03 0.000000000000000000e+00
1.443000000000000000e+03 0.000000000000000000e+00
1.444000000000000000e+03 0.000000000000000000e+00
1.445000000000000000e+03 0.000000000000000000e+00
1.446000000000000000e+03 0.000000000000000000e+00
1.447000000000000000e+03 0.000000000000000000e+00
1.448000000000000000e+03 0.000000000000000000e+00
1.449000000000000000e+03 0.000000000000000000e+00
1.450000000000000000e+03 0.000000000000000000e+00
1.451000000000000000e+03 0.000000000000000000e+00
1.452000000000000000e+03 0.000000000000000000e+00
1.453000000000000000e+03 0.000000000000000000e+00
1.454000000000000000e+03 0.000000000000000000e+00
1.455000000000000000e+03 0.000000000000000000e+00
1.456000000000000000e+03 0.000000000000000000e+00
1.457000000000000000e+03 0.000000000000000000e+00
1.458000000000000000e+03 0.000000000000000000e+00
1.459000000000000000e+03 0.000000000000000000e+00
1.460000000000000000e+03 0.000000000000000000e+00
1.461000000000000000e+03 0.000000000000000000e+00
1.462000000000000000e+03 0.000000000000000000e+00
1.463000000000000000e+03 0.000000000000000000e+00
1.464000000000000000e+03 0.000000000000000000e+00
1.465000000000000000e+03 0.000000000000000000e+00
1.466000000000000000e+03 0.000000000000000000e+00
1.467000000000000000e+03 0.000000000000000000e+00
1.468000000000000000e+03 0.000000000000000000e+00
1.469000000000000000e+03 0.000000000000000000e+00
1.470000000000000000e+03 0.000000000000000000e+00
1.471000000000000000e+03 0.000000000000000000e+00
1.472000000000000000e+03 0.000000000000000000e+00
1.473000000000000000e+03 0.000000000000000000e+00
1.474000000000000000e+03 0.000000000000000000e+00
1.475000000000000000e+03 0.000000000000000000e+00
1.476000000000000000e+03 0.000000000000000000e+00
1.477000000000000000e+03 0.000000000000000000e+00
1.478000000000000000e+03 0.000000000000000000e+00
1.479000000000000000e+03 0.000000000000000000e+00
1.480000000000000000e+03 0.000000000000000000e+00
1.481000000000000000e+03 0.000000000000000000e+00
1.482000000000000000e+03 0.000000000000000000e+00
1.483000000000000000e+03 0.000000000000000000e+00
1.484000000000000000e+03 0.000000000000000000e+00
1.485000000000000000e+03 0.000000000000000000e+00
1.486000000000000000e+03 0.000000000000000000e+00
1.487000000000000000e+03 0.000000000000000000e+00
1.488000000000000000e+03 0.000000000000000000e+00
1.489000000000000000e+03 0.000000000000000000e+00
1.490000000000000000e+03 0.000000000000000000e+00
1.491000000000000000e+03 0.000000000000000000e+00
1.492000000000000000e+03 0.000000000000000000e+00
1.493000000000000000e+03 0.000000000000000000e+00
1.494000000000000000e+03 0.000000000000000000e+00
1.495000000000000000e+03 0.000000000000000000e+00
1.496000000000000000e+03 0.000000000000000000e+00
1.497000000000000000e+03 0.000000000000000000e+00
1.498000000000000000e+03 0.000000000000000000e+00
1.499000000000000000e+03 0.000000000000000000e+00
1.500000000000000000e+03 0.000000000000000000e+00
