9.100000000000000000e+01 3.124681674479373328e+01
9.200000000000000000e+01 1.335676340980270993e+02
9.300000000000000000e+01 2.326215986600839756e+02
9.400000000000000000e+01 2.067996045963652421e+02
9.500000000000000000e+01 1.045417366101797825e+02
9.600000000000000000e+01 7.873007490002491693e+01
9.700000000000000000e+01 8.180749271405457534e+01
9.800000000000000000e+01 5.848894637821245368e+01
9.900000000000000000e+01 5.859043372687300177e+01
1.000000000000000000e+02 6.506065881951502661e+01
1.010000000000000000e+02 7.274281656159271847e+01
1.020000000000000000e+02 8.025946432482888326e+01
1.030000000000000000e+02 9.321639295374393441e+01
1.040000000000000000e+02 1.657285212360018818e+02
1.050000000000000000e+02 2.703800263015967289e+02
1.060000000000000000e+02 3.603688750466710644e+02
1.070000000000000000e+02 3.752138235843185043e+02
1.080000000000000000e+02 4.432608855009339095e+02
1.090000000000000000e+02 5.438248243517941773e+02
1.100000000000000000e+02 6.104695387678906400e+02
1.110000000000000000e+02 5.852813496577474552e+02
1.120000000000000000e+02 5.226114943372745074e+02
1.130000000000000000e+02 4.020885245592202182e+02
1.140000000000000000e+02 2.296697589504249777e+02
1.150000000000000000e+02 8.087648077162381810e+01
1.160000000000000000e+02 1.081934112134426407e+01
1.170000000000000000e+02 3.008074235220912840e+01
1.180000000000000000e+02 3.551579001451980133e+01
1.190000000000000000e+02 3.699281909166320759e+01
1.200000000000000000e+02 2.413239117610459417e+01
1.210000000000000000e+02 1.142368274154770624e+01
1.220000000000000000e+02 6.826236684090417839e+01
1.230000000000000000e+02 1.391936149139187648e+02
1.240000000000000000e+02 2.368478267579340582e+02
1.250000000000000000e+02 3.460538807716247902e+02
1.260000000000000000e+02 4.622190423771002088e+02
1.270000000000000000e+02 5.880154663762697282e+02
1.280000000000000000e+02 7.409548399917043753e+02
1.290000000000000000e+02 8.917847115121356865e+02
1.300000000000000000e+02 1.056987512134412555e+03
1.310000000000000000e+02 1.252633560257206909e+03
1.320000000000000000e+02 1.446266969508398688e+03
1.330000000000000000e+02 1.622650970752957619e+03
1.340000000000000000e+02 1.722714502800248965e+03
1.350000000000000000e+02 1.694178103920348804e+03
1.360000000000000000e+02 1.527654149730403788e+03
1.370000000000000000e+02 1.326474347023436621e+03
1.380000000000000000e+02 1.151902052893589598e+03
1.390000000000000000e+02 1.052108810244711776e+03
1.400000000000000000e+02 1.046455596141879141e+03
1.410000000000000000e+02 1.107071880730139128e+03
1.420000000000000000e+02 1.214018309271936459e+03
1.430000000000000000e+02 1.358524336652146985e+03
1.440000000000000000e+02 1.538114940468781469e+03
1.450000000000000000e+02 1.718256131715409992e+03
1.460000000000000000e+02 1.821502818917237846e+03
1.470000000000000000e+02 1.818368886745488226e+03
1.480000000000000000e+02 1.696463705931149207e+03
1.490000000000000000e+02 1.462478982161380145e+03
1.500000000000000000e+02 1.188417964530176960e+03
1.510000000000000000e+02 9.123218417254233827e+02
1.520000000000000000e+02 6.684913028002491728e+02
1.530000000000000000e+02 4.920774985065349938e+02
1.540000000000000000e+02 3.514052004977187380e+02
1.550000000000000000e+02 2.414750351586801003e+02
1.560000000000000000e+02 1.617015268201616607e+02
1.570000000000000000e+02 1.045363555454171376e+02
1.580000000000000000e+02 6.538399515660692884e+01
1.590000000000000000e+02 3.285000680149310881e+01
1.600000000000000000e+02 8.214790601824931926e+00
1.610000000000000000e+02 2.913813945861837507e+00
1.620000000000000000e+02 5.362060628085467684e+00
1.630000000000000000e+02 2.851959304437932108e+00
1.640000000000000000e+02 1.916245550508218320e+00
1.650000000000000000e+02 7.478709413192280664e+00
1.660000000000000000e+02 1.555443350476971531e+01
1.670000000000000000e+02 3.246158041900018532e+01
1.680000000000000000e+02 5.047911972412374837e+01
1.690000000000000000e+02 6.935469136665285816e+01
1.700000000000000000e+02 9.753786108276273126e+01
1.710000000000000000e+02 1.303653238332292403e+02
1.720000000000000000e+02 1.664718205309003451e+02
1.730000000000000000e+02 2.065794443683884083e+02
1.740000000000000000e+02 2.491263171748598495e+02
1.750000000000000000e+02 2.904593275046665326e+02
1.760000000000000000e+02 3.474065735532054759e+02
1.770000000000000000e+02 4.094757231694672441e+02
1.780000000000000000e+02 4.783562500725987547e+02
1.790000000000000000e+02 5.781954430616045784e+02
1.800000000000000000e+02 6.757450950425221663e+02
1.810000000000000000e+02 7.574275616677042535e+02
1.820000000000000000e+02 8.139844408006637195e+02
1.830000000000000000e+02 8.321089036714374743e+02
1.840000000000000000e+02 7.883672275819156994e+02
1.850000000000000000e+02 7.057736352623928724e+02
1.860000000000000000e+02 6.023837222775354121e+02
1.870000000000000000e+02 4.917114544587313958e+02
1.880000000000000000e+02 3.842616047915379909e+02
1.890000000000000000e+02 3.020835484446280361e+02
1.900000000000000000e+02 2.377608684920139126e+02
1.910000000000000000e+02 1.859793393694255030e+02
1.920000000000000000e+02 1.545078482579844206e+02
1.930000000000000000e+02 1.383832354075916555e+02
1.940000000000000000e+02 1.275610736154324059e+02
1.950000000000000000e+02 1.222492343840730058e+02
1.960000000000000000e+02 1.285604736569175941e+02
1.970000000000000000e+02 1.426312477286867875e+02
1.980000000000000000e+02 1.521910116341767321e+02
1.990000000000000000e+02 1.675647740302841839e+02
2.000000000000000000e+02 1.954177081725781875e+02
2.010000000000000000e+02 2.132868271256737387e+02
2.020000000000000000e+02 2.522024712507783022e+02
2.030000000000000000e+02 2.970848629744867822e+02
2.040000000000000000e+02 3.440306408958936686e+02
2.050000000000000000e+02 4.083320925326688666e+02
2.060000000000000000e+02 4.779472874922224719e+02
2.070000000000000000e+02 5.552032202405645194e+02
2.080000000000000000e+02 6.416411609002279874e+02
2.090000000000000000e+02 7.360727437461101772e+02
2.100000000000000000e+02 8.329569749066781696e+02
2.110000000000000000e+02 9.194600675171132025e+02
2.120000000000000000e+02 9.848378847334579405e+02
2.130000000000000000e+02 1.013951238697635745e+03
2.140000000000000000e+02 9.925098107031741392e+02
2.150000000000000000e+02 9.349471090230233585e+02
2.160000000000000000e+02 8.404231354698193854e+02
2.170000000000000000e+02 7.300173253889238367e+02
2.180000000000000000e+02 6.222910416511107314e+02
2.190000000000000000e+02 5.174387587429982887e+02
2.200000000000000000e+02 4.359851472930923819e+02
2.210000000000000000e+02 3.660111727235013745e+02
2.220000000000000000e+02 2.998239981746531271e+02
2.230000000000000000e+02 2.431496056004976651e+02
2.240000000000000000e+02 1.972645845052890081e+02
2.250000000000000000e+02 1.623118057652426387e+02
2.260000000000000000e+02 1.365150446172994521e+02
2.270000000000000000e+02 1.157910696328565052e+02
2.280000000000000000e+02 8.945781218834250126e+01
2.290000000000000000e+02 7.116362995021775362e+01
2.300000000000000000e+02 5.976636465256173381e+01
2.310000000000000000e+02 4.890030423356170530e+01
2.320000000000000000e+02 3.243718224849605036e+01
2.330000000000000000e+02 2.839194095208462798e+01
2.340000000000000000e+02 2.437188420659616384e+01
2.350000000000000000e+02 1.824441150383741572e+01
2.360000000000000000e+02 1.512019464219041076e+01
2.370000000000000000e+02 1.422759809168221601e+01
2.380000000000000000e+02 7.996197412570005270e+00
2.390000000000000000e+02 3.510787277950643048e+00
2.400000000000000000e+02 5.553893968263892589e+00
2.410000000000000000e+02 1.301111031321307721e+01
2.420000000000000000e+02 5.141722703027772567e+00
2.430000000000000000e+02 4.684893037958892670e+00
2.440000000000000000e+02 8.334820199336281377e+00
2.450000000000000000e+02 4.340413590748765316e+00
2.460000000000000000e+02 2.159134871603403560e+00
2.470000000000000000e+02 4.989282665836952901e+00
2.480000000000000000e+02 6.329441975731199932e+00
2.490000000000000000e+02 4.029427109313409971e+00
2.500000000000000000e+02 3.465721752748387452e+00
2.510000000000000000e+02 1.910180265090227980e+00
2.520000000000000000e+02 1.635231823116733985e-01
2.530000000000000000e+02 1.976927204106994740e+00
2.540000000000000000e+02 3.344591087948559860e+00
2.550000000000000000e+02 8.386168686994385224e-01
2.560000000000000000e+02 2.996418556316076121e-01
2.570000000000000000e+02 4.458914801327325428e+00
2.580000000000000000e+02 7.496350047707981190e+00
2.590000000000000000e+02 4.003257099149670317e+00
2.600000000000000000e+02 1.362299830360893527e+00
2.610000000000000000e+02 8.915655824517859651e-01
2.620000000000000000e+02 2.409635622277509270e+00
2.630000000000000000e+02 2.286861257569485328e+00
2.640000000000000000e+02 1.835864226094166440e+00
2.650000000000000000e+02 3.701428663970123711e+00
2.660000000000000000e+02 4.470179959560352856e+00
2.670000000000000000e+02 3.579280718937965400e+00
2.680000000000000000e+02 9.461302254718921834e-01
2.690000000000000000e+02 7.532212615017598090e+00
2.700000000000000000e+02 2.762759079029159626e+00
2.710000000000000000e+02 1.102144097282737878e+00
2.720000000000000000e+02 2.406287483302256280e+00
2.730000000000000000e+02 6.663495743622058765e-01
2.740000000000000000e+02 1.138412651524573382e+00
2.750000000000000000e+02 1.243347014312373933e+00
2.760000000000000000e+02 8.635642113669299569e-01
2.770000000000000000e+02 4.517221438083423024e+00
2.780000000000000000e+02 9.279244788425719648e+00
2.790000000000000000e+02 9.554517618543895807e+00
2.800000000000000000e+02 4.672860886538215297e+00
2.810000000000000000e+02 8.801348278365779265e-01
2.820000000000000000e+02 1.777157877203914049e+00
2.830000000000000000e+02 1.185395165525815253e+00
2.840000000000000000e+02 3.529639782247640523e-01
2.850000000000000000e+02 3.655059991288124088e+00
2.860000000000000000e+02 7.803527853349913279e+00
2.870000000000000000e+02 1.346671722107010361e+01
2.880000000000000000e+02 2.142312343497206939e+01
2.890000000000000000e+02 2.333140862061812015e+01
2.900000000000000000e+02 2.023728513894642944e+01
2.910000000000000000e+02 1.782675563783447714e+01
2.920000000000000000e+02 2.139413200995650044e+01
2.930000000000000000e+02 2.542394103276642880e+01
2.940000000000000000e+02 2.362840415473980826e+01
2.950000000000000000e+02 2.557182355527915263e+01
2.960000000000000000e+02 3.926968501970542036e+01
2.970000000000000000e+02 4.074806609831980353e+01
2.980000000000000000e+02 4.445728791951862746e+01
2.990000000000000000e+02 5.087006446587840713e+01
3.000000000000000000e+02 5.685855917237085322e+01
3.010000000000000000e+02 6.092496237087728161e+01
3.020000000000000000e+02 7.110282915370258650e+01
3.030000000000000000e+02 7.994199994192075565e+01
3.040000000000000000e+02 8.604687005393068944e+01
3.050000000000000000e+02 9.256477602572091712e+01
3.060000000000000000e+02 1.041290980709397189e+02
3.070000000000000000e+02 1.134017391205144207e+02
3.080000000000000000e+02 1.268193182742172951e+02
3.090000000000000000e+02 1.433790329392244871e+02
3.100000000000000000e+02 1.582869376192451796e+02
3.110000000000000000e+02 1.659575020535156682e+02
3.120000000000000000e+02 1.796018196432278842e+02
3.130000000000000000e+02 1.905768111157196643e+02
3.140000000000000000e+02 1.990532137730759246e+02
3.150000000000000000e+02 2.054254855631612031e+02
3.160000000000000000e+02 1.985104537121527528e+02
3.170000000000000000e+02 1.938891694876581937e+02
3.180000000000000000e+02 1.897811680564198866e+02
3.190000000000000000e+02 1.801285675793406824e+02
3.200000000000000000e+02 1.639685737398880008e+02
3.210000000000000000e+02 1.542593557560672650e+02
3.220000000000000000e+02 1.406740747355322299e+02
3.230000000000000000e+02 1.226970134204520519e+02
3.240000000000000000e+02 1.105007620410703311e+02
3.250000000000000000e+02 1.133968318125258889e+02
3.260000000000000000e+02 9.109403277743170690e+01
3.270000000000000000e+02 7.631415672267156936e+01
3.280000000000000000e+02 7.014705491289926442e+01
3.290000000000000000e+02 6.295881387056602563e+01
3.300000000000000000e+02 5.363570570006210403e+01
3.310000000000000000e+02 5.144753065118208468e+01
3.320000000000000000e+02 4.624874070939659276e+01
3.330000000000000000e+02 3.917773158680761725e+01
3.340000000000000000e+02 3.513273803401079931e+01
3.350000000000000000e+02 3.429647578303257660e+01
3.360000000000000000e+02 3.277149944202454890e+01
3.370000000000000000e+02 2.701358057871810914e+01
3.380000000000000000e+02 2.174246665836964709e+01
3.390000000000000000e+02 1.926067796515250663e+01
3.400000000000000000e+02 1.584147110972828010e+01
3.410000000000000000e+02 2.292065263223399185e+01
3.420000000000000000e+02 1.964411746110768320e+01
3.430000000000000000e+02 1.382012879278159012e+01
3.440000000000000000e+02 1.567355143538685169e+01
3.450000000000000000e+02 1.249802862269236314e+01
3.460000000000000000e+02 6.660000485998610387e+00
3.470000000000000000e+02 6.529477203484810310e+00
3.480000000000000000e+02 6.568306168014892421e+00
3.490000000000000000e+02 4.713007660237413798e-01
3.500000000000000000e+02 2.933314193320871066e+00
3.510000000000000000e+02 2.952531336374918158e+00
3.520000000000000000e+02 8.927627218419408317e-01
3.530000000000000000e+02 1.978101428541782836e+00
3.540000000000000000e+02 1.603536734135205588e+00
3.550000000000000000e+02 6.140696427919502653e+00
3.560000000000000000e+02 3.718461292470512269e+00
3.570000000000000000e+02 1.965374077146411769e-01
3.580000000000000000e+02 2.257807766231093805e+00
3.590000000000000000e+02 5.610914440157645622e+00
3.600000000000000000e+02 7.657899097697840052e-01
3.610000000000000000e+02 8.397302633762066648e+00
3.620000000000000000e+02 1.078551697158262179e+01
3.630000000000000000e+02 4.288179528313621702e+00
3.640000000000000000e+02 1.026664858328160346e+00
3.650000000000000000e+02 2.704482111387699561e+00
3.660000000000000000e+02 2.434890957892543284e+00
3.670000000000000000e+02 3.140852420867027206e+00
3.680000000000000000e+02 2.224239508400795540e+00
3.690000000000000000e+02 8.520722551337945205e+00
3.700000000000000000e+02 3.006817361543352440e+00
3.710000000000000000e+02 3.952255232109430416e+00
3.720000000000000000e+02 6.060202401783869597e+00
3.730000000000000000e+02 6.565401816428119375e+00
3.740000000000000000e+02 7.408407494710633756e+00
3.750000000000000000e+02 6.282575838000419743e+00
3.760000000000000000e+02 1.200411956316115969e+01
3.770000000000000000e+02 1.607173150383737692e+01
3.780000000000000000e+02 1.543638275819164996e+01
3.790000000000000000e+02 1.417637784069698448e+01
3.800000000000000000e+02 1.989263491391828609e+01
3.810000000000000000e+02 2.537981422438824097e+01
3.820000000000000000e+02 2.683352661066165723e+01
3.830000000000000000e+02 2.786563291225892058e+01
3.840000000000000000e+02 3.347336131480707166e+01
3.850000000000000000e+02 3.800876549056224007e+01
3.860000000000000000e+02 4.512670502800264671e+01
3.870000000000000000e+02 4.976308013479881254e+01
3.880000000000000000e+02 5.296140001866822900e+01
3.890000000000000000e+02 6.014083785936549731e+01
3.900000000000000000e+02 7.306410663762696345e+01
3.910000000000000000e+02 8.006535723501339419e+01
3.920000000000000000e+02 8.684241202862459375e+01
3.930000000000000000e+02 9.620752453640322699e+01
3.940000000000000000e+02 1.094170034847540762e+02
3.950000000000000000e+02 1.311993089607962872e+02
3.960000000000000000e+02 1.486483917237088974e+02
3.970000000000000000e+02 1.721985875544493751e+02
3.980000000000000000e+02 1.997677540551752031e+02
3.990000000000000000e+02 2.291276398340248761e+02
4.000000000000000000e+02 2.719427482265094795e+02
4.010000000000000000e+02 3.086453586185440940e+02
4.020000000000000000e+02 3.464363303671437961e+02
4.030000000000000000e+02 3.881222423771010313e+02
4.040000000000000000e+02 4.366320285210545649e+02
4.050000000000000000e+02 4.995462367067610217e+02
4.060000000000000000e+02 5.761307690105772963e+02
4.070000000000000000e+02 6.700378300974927015e+02
4.080000000000000000e+02 7.886725465781842104e+02
4.090000000000000000e+02 9.388382229620377757e+02
4.100000000000000000e+02 1.125253474797754507e+03
4.110000000000000000e+02 1.355569536499379865e+03
4.120000000000000000e+02 1.635972162414433797e+03
4.130000000000000000e+02 1.960685165525819002e+03
4.140000000000000000e+02 2.291950216092906885e+03
4.150000000000000000e+02 2.571286540136900840e+03
4.160000000000000000e+02 2.696932827214270219e+03
4.170000000000000000e+02 2.572570552582448272e+03
4.180000000000000000e+02 2.233177277120926192e+03
4.190000000000000000e+02 1.779313236465462978e+03
4.200000000000000000e+02 1.346480734909762077e+03
4.210000000000000000e+02 1.007308619705450724e+03
4.220000000000000000e+02 7.416766351794210550e+02
4.230000000000000000e+02 5.460673932379175994e+02
4.240000000000000000e+02 4.087864543870538228e+02
4.250000000000000000e+02 3.117587935283120828e+02
4.260000000000000000e+02 2.438085796515256902e+02
4.270000000000000000e+02 1.900602008089620085e+02
4.280000000000000000e+02 1.451165380211566571e+02
4.290000000000000000e+02 1.121530273179840975e+02
4.300000000000000000e+02 9.066188888197501683e+01
4.310000000000000000e+02 6.928017471173822628e+01
4.320000000000000000e+02 5.279036387264054753e+01
4.330000000000000000e+02 4.325801167392661029e+01
4.340000000000000000e+02 3.716560210700956901e+01
4.350000000000000000e+02 2.966143996888603951e+01
4.360000000000000000e+02 2.050807139182741423e+01
4.370000000000000000e+02 1.914827001659061523e+01
4.380000000000000000e+02 1.383342535780944083e+01
4.390000000000000000e+02 6.069423728064638368e+00
4.400000000000000000e+02 1.843761221692272301e+00
4.410000000000000000e+02 2.385378842563822488e+00
4.420000000000000000e+02 4.190426704418195314e+00
4.430000000000000000e+02 2.301691021376401913e-01
4.440000000000000000e+02 5.767052497407143541e-01
4.450000000000000000e+02 1.604396355942781627e+00
4.460000000000000000e+02 1.938418438407272681e+00
4.470000000000000000e+02 8.050550062227408432e-01
4.480000000000000000e+02 6.698129958514704718e+00
4.490000000000000000e+02 8.988307672127753278e+00
4.500000000000000000e+02 1.023580600705246013e+01
4.510000000000000000e+02 1.290360839452394437e+01
4.520000000000000000e+02 1.351031322687681246e+01
4.530000000000000000e+02 1.647547197676831487e+01
4.540000000000000000e+02 2.047693561501762005e+01
4.550000000000000000e+02 2.849980380547504666e+01
4.560000000000000000e+02 3.696313521468582053e+01
4.570000000000000000e+02 4.068328081725785950e+01
4.580000000000000000e+02 4.978370430823488135e+01
4.590000000000000000e+02 4.920853377722465183e+01
4.600000000000000000e+02 5.642805479776000510e+01
4.610000000000000000e+02 6.575716620410697999e+01
4.620000000000000000e+02 6.996623881767260400e+01
4.630000000000000000e+02 8.106929223605084189e+01
4.640000000000000000e+02 8.582202494503206935e+01
4.650000000000000000e+02 9.851507237087709257e+01
4.660000000000000000e+02 1.132188604646335790e+02
4.670000000000000000e+02 1.281120086704002290e+02
4.680000000000000000e+02 1.504400797967224435e+02
4.690000000000000000e+02 1.683096652146854524e+02
4.700000000000000000e+02 1.948461810205352549e+02
4.710000000000000000e+02 2.237467283965981721e+02
4.720000000000000000e+02 2.543419650145166315e+02
4.730000000000000000e+02 2.908688172370881944e+02
4.740000000000000000e+02 3.327923036714378213e+02
4.750000000000000000e+02 3.930515357113237656e+02
4.760000000000000000e+02 4.589513666666680933e+02
4.770000000000000000e+02 5.352944527276512190e+02
4.780000000000000000e+02 6.275427697013680017e+02
4.790000000000000000e+02 7.288560467952677300e+02
4.800000000000000000e+02 8.441628862476693484e+02
4.810000000000000000e+02 9.668108119452501796e+02
4.820000000000000000e+02 1.100990554126916550e+03
4.830000000000000000e+02 1.256740987554445383e+03
4.840000000000000000e+02 1.444893837585568690e+03
4.850000000000000000e+02 1.669233705662723196e+03
4.860000000000000000e+02 1.934473008504455038e+03
4.870000000000000000e+02 2.246268337896694447e+03
4.880000000000000000e+02 2.617831970752955385e+03
4.890000000000000000e+02 3.061587169881764112e+03
4.900000000000000000e+02 3.575146691142909731e+03
4.910000000000000000e+02 4.156190312798179548e+03
4.920000000000000000e+02 4.750846404480399542e+03
4.930000000000000000e+02 5.332146623107237247e+03
4.940000000000000000e+02 5.779762278158063964e+03
4.950000000000000000e+02 5.947108950632649794e+03
4.960000000000000000e+02 5.811805947728686078e+03
4.970000000000000000e+02 5.359056356565014539e+03
4.980000000000000000e+02 4.675576267579325759e+03
4.990000000000000000e+02 3.918917186229772597e+03
5.000000000000000000e+02 3.209584397427934618e+03
5.010000000000000000e+02 2.598943456129441074e+03
5.020000000000000000e+02 2.103456184985478103e+03
5.030000000000000000e+02 1.708958709603821717e+03
5.040000000000000000e+02 1.392381790085050170e+03
5.050000000000000000e+02 1.144075859394444706e+03
5.060000000000000000e+02 9.545361475420047555e+02
5.070000000000000000e+02 8.023705088363425375e+02
5.080000000000000000e+02 6.831327565947736957e+02
5.090000000000000000e+02 5.750953643227542216e+02
5.100000000000000000e+02 4.899151711263224911e+02
5.110000000000000000e+02 4.283198192866021259e+02
5.120000000000000000e+02 3.739016767060768984e+02
5.130000000000000000e+02 3.193168069487677485e+02
5.140000000000000000e+02 2.814104467952712980e+02
5.150000000000000000e+02 2.486362050404487150e+02
5.160000000000000000e+02 2.150140396598223447e+02
5.170000000000000000e+02 1.843610798589503474e+02
5.180000000000000000e+02 1.607182352001659069e+02
5.190000000000000000e+02 1.352599228998133185e+02
5.200000000000000000e+02 1.159673665836959486e+02
5.210000000000000000e+02 1.016151487139594707e+02
5.220000000000000000e+02 8.723994750881526272e+01
5.230000000000000000e+02 7.232591795892905395e+01
5.240000000000000000e+02 6.077090322961992541e+01
5.250000000000000000e+02 5.022425781625848629e+01
5.260000000000000000e+02 4.449310702343936441e+01
5.270000000000000000e+02 3.675309316531794224e+01
5.280000000000000000e+02 2.848573361260867998e+01
5.290000000000000000e+02 2.344481753578113370e+01
5.300000000000000000e+02 1.551071368803173733e+01
5.310000000000000000e+02 8.644827065325689119e+00
5.320000000000000000e+02 2.647258329184839720e+00
5.330000000000000000e+02 4.903498027380160940e-01
5.340000000000000000e+02 3.237535943177165088e+00
5.350000000000000000e+02 9.174676192698685284e+00
5.360000000000000000e+02 9.184639005393041344e+00
5.370000000000000000e+02 3.436156749273890920e+00
5.380000000000000000e+02 2.950528724331234809e+00
5.390000000000000000e+02 1.061942593030521387e+01
5.400000000000000000e+02 1.572511182119860074e+01
5.410000000000000000e+02 7.813667853972069643e+00
5.420000000000000000e+02 7.387381279402654322e+00
5.430000000000000000e+02 9.348853886721936846e+00
5.440000000000000000e+02 9.965967021982566010e+00
5.450000000000000000e+02 5.387514277535602858e+00
5.460000000000000000e+02 2.707552257622965808e+00
5.470000000000000000e+02 5.734383859809232042e+00
5.480000000000000000e+02 5.085412658991920409e+00
5.490000000000000000e+02 6.413715782617732231e+00
5.500000000000000000e+02 1.419567059975135948e+01
5.510000000000000000e+02 2.194985577473557470e+01
5.520000000000000000e+02 2.327739014727235300e+01
5.530000000000000000e+02 2.639168680771641817e+01
5.540000000000000000e+02 3.841199899191047251e+01
5.550000000000000000e+02 4.020500288114499199e+01
5.560000000000000000e+02 4.776189695706306537e+01
5.570000000000000000e+02 5.729583946276706996e+01
5.580000000000000000e+02 5.999406603609205746e+01
5.590000000000000000e+02 7.331178606928034469e+01
5.600000000000000000e+02 7.622497947728687961e+01
5.610000000000000000e+02 8.173724177141664882e+01
5.620000000000000000e+02 8.949296958722261763e+01
5.630000000000000000e+02 9.830608722464215532e+01
5.640000000000000000e+02 1.087895772868698288e+02
5.650000000000000000e+02 1.155394958307405489e+02
5.660000000000000000e+02 1.289528175274839441e+02
5.670000000000000000e+02 1.411567417669015470e+02
5.680000000000000000e+02 1.587551033188134966e+02
5.690000000000000000e+02 1.750879362787802904e+02
5.700000000000000000e+02 1.817388045416838338e+02
5.710000000000000000e+02 1.965661509023023541e+02
5.720000000000000000e+02 2.118762887160337982e+02
5.730000000000000000e+02 2.296489036499376084e+02
5.740000000000000000e+02 2.434189781580583940e+02
5.750000000000000000e+02 2.557601182742166657e+02
5.760000000000000000e+02 2.746873495022810516e+02
5.770000000000000000e+02 2.938669803152870941e+02
5.780000000000000000e+02 3.019024958307403494e+02
5.790000000000000000e+02 3.195064851275668047e+02
5.800000000000000000e+02 3.374929792366728520e+02
5.810000000000000000e+02 3.521342589089399553e+02
5.820000000000000000e+02 3.690267939431651598e+02
5.830000000000000000e+02 3.825594301182329673e+02
5.840000000000000000e+02 3.966146459863101086e+02
5.850000000000000000e+02 4.124316707114703604e+02
5.860000000000000000e+02 4.284395307819950176e+02
5.870000000000000000e+02 4.419180574362161451e+02
5.880000000000000000e+02 4.526760420659612123e+02
5.890000000000000000e+02 4.662086369840277484e+02
5.900000000000000000e+02 4.862409775772653120e+02
5.910000000000000000e+02 5.033762904376681604e+02
5.920000000000000000e+02 5.140840140012443271e+02
5.930000000000000000e+02 5.222217243260055284e+02
5.940000000000000000e+02 5.355720475212609699e+02
5.950000000000000000e+02 5.560102250362992891e+02
5.960000000000000000e+02 5.754637009539609380e+02
5.970000000000000000e+02 5.958768221530805249e+02
5.980000000000000000e+02 6.123710446172995034e+02
5.990000000000000000e+02 6.273331604313557364e+02
6.000000000000000000e+02 6.483516891516292162e+02
6.010000000000000000e+02 6.832696158680784038e+02
6.020000000000000000e+02 7.239139493571118464e+02
6.030000000000000000e+02 7.605343686994385735e+02
6.040000000000000000e+02 7.961318469404669713e+02
6.050000000000000000e+02 8.402027278307739380e+02
6.060000000000000000e+02 8.927776760423130327e+02
6.070000000000000000e+02 9.417330108691120358e+02
6.080000000000000000e+02 1.003191017340799590e+03
6.090000000000000000e+02 1.078839655050818010e+03
6.100000000000000000e+02 1.151727726197882930e+03
6.110000000000000000e+02 1.229299222153080791e+03
6.120000000000000000e+02 1.317204341422941752e+03
6.130000000000000000e+02 1.412772462352209459e+03
6.140000000000000000e+02 1.531207074051030077e+03
6.150000000000000000e+02 1.647959584940886543e+03
6.160000000000000000e+02 1.763884311761048366e+03
6.170000000000000000e+02 1.889323658784491045e+03
6.180000000000000000e+02 2.012114954573745308e+03
6.190000000000000000e+02 2.109960934881795765e+03
6.200000000000000000e+02 2.187277459240819098e+03
6.210000000000000000e+02 2.230093224642189853e+03
6.220000000000000000e+02 2.223139312525921014e+03
6.230000000000000000e+02 2.156724516697782747e+03
6.240000000000000000e+02 2.038173782825143462e+03
6.250000000000000000e+02 1.876303562422233881e+03
6.260000000000000000e+02 1.672583772246427543e+03
6.270000000000000000e+02 1.452851960182489620e+03
6.280000000000000000e+02 1.240113645924082903e+03
6.290000000000000000e+02 1.051808873055383629e+03
6.300000000000000000e+02 8.855741137080026419e+02
6.310000000000000000e+02 7.369833232109496066e+02
6.320000000000000000e+02 6.082116857498423315e+02
6.330000000000000000e+02 4.955531962663314971e+02
6.340000000000000000e+02 4.120063466708133433e+02
6.350000000000000000e+02 3.427515401783852553e+02
6.360000000000000000e+02 2.837070924289550362e+02
6.370000000000000000e+02 2.371051052271305082e+02
6.380000000000000000e+02 1.992464431030901437e+02
6.390000000000000000e+02 1.585228337689267732e+02
6.400000000000000000e+02 1.377223507156188589e+02
6.410000000000000000e+02 1.111611247666456848e+02
6.420000000000000000e+02 8.749975230242702651e+01
6.430000000000000000e+02 7.156305065131732590e+01
6.440000000000000000e+02 5.735383537647786056e+01
6.450000000000000000e+02 4.734552383737801762e+01
6.460000000000000000e+02 3.625483225264463272e+01
6.470000000000000000e+02 3.324830813562836340e+01
6.480000000000000000e+02 2.276515439535344854e+01
6.490000000000000000e+02 1.518404671852314003e+01
6.500000000000000000e+02 1.385592564081291123e+01
6.510000000000000000e+02 5.470947570628417189e+00
6.520000000000000000e+02 9.610501167807545819e-01
6.530000000000000000e+02 2.872130698257985504e+00
6.540000000000000000e+02 9.673247502592672298e-01
6.550000000000000000e+02 1.911241355320463686e+00
6.560000000000000000e+02 4.792340763168811968e+00
6.570000000000000000e+02 3.292963467745273043e+00
6.580000000000000000e+02 1.398783034640120659e+00
6.590000000000000000e+02 5.148035192658684700e+00
6.600000000000000000e+02 6.113248425015552989e+00
6.610000000000000000e+02 5.196640890894001608e+00
6.620000000000000000e+02 4.812841977805437210e+00
6.630000000000000000e+02 4.614566511097291546e+00
6.640000000000000000e+02 1.820198257622972271e+00
6.650000000000000000e+02 1.478018008711884157e+00
6.660000000000000000e+02 1.684362220078806649e+00
6.670000000000000000e+02 4.078206160339983732e+00
6.680000000000000000e+02 9.447287838415261874e+00
6.690000000000000000e+02 1.069487197884254392e+01
6.700000000000000000e+02 1.348687691557760360e+01
6.710000000000000000e+02 1.707350006222773331e+01
6.720000000000000000e+02 1.863496994606926904e+01
6.730000000000000000e+02 1.587990320199083882e+01
6.740000000000000000e+02 1.948855329184816298e+01
6.750000000000000000e+02 2.029557638871604297e+01
6.760000000000000000e+02 1.548163601617594942e+01
6.770000000000000000e+02 1.204513459240826911e+01
6.780000000000000000e+02 1.002606000933418962e+01
6.790000000000000000e+02 1.321822278307747389e+01
6.800000000000000000e+02 1.684450355527894416e+01
6.810000000000000000e+02 1.465022827421710083e+01
6.820000000000000000e+02 1.444689268560756013e+01
6.830000000000000000e+02 1.799450126944611483e+01
6.840000000000000000e+02 1.814615057456963498e+01
6.850000000000000000e+02 1.402064945665705942e+01
6.860000000000000000e+02 1.307956636797344885e+01
6.870000000000000000e+02 1.688934673304284928e+01
6.880000000000000000e+02 1.748345731798383085e+01
6.890000000000000000e+02 1.766362729309269852e+01
6.900000000000000000e+02 1.785266395353665203e+01
6.910000000000000000e+02 1.484550805227135406e+01
6.920000000000000000e+02 2.018165995021785619e+01
6.930000000000000000e+02 2.105536858120720112e+01
6.940000000000000000e+02 1.773211816635564020e+01
6.950000000000000000e+02 1.521209280232312366e+01
6.960000000000000000e+02 1.578819133139769804e+01
6.970000000000000000e+02 1.802212061605469984e+01
6.980000000000000000e+02 1.899235621655255812e+01
6.990000000000000000e+02 1.861820899626713199e+01
7.000000000000000000e+02 1.578576160962453301e+01
7.010000000000000000e+02 2.199386545115103431e+01
7.020000000000000000e+02 2.029079041692605756e+01
7.030000000000000000e+02 1.242879329807100852e+01
7.040000000000000000e+02 1.056806134453427148e+01
7.050000000000000000e+02 1.387809603194356889e+01
7.060000000000000000e+02 1.022033708649655637e+01
7.070000000000000000e+02 1.071242553204730541e+01
7.080000000000000000e+02 1.098071456751710784e+01
7.090000000000000000e+02 8.020935271312982451e+00
7.100000000000000000e+02 9.507039128811676676e+00
7.110000000000000000e+02 1.362540380418998787e+01
7.120000000000000000e+02 8.658385510267441632e+00
7.130000000000000000e+02 5.456329983820667806e+00
7.140000000000000000e+02 7.421053616677069975e+00
7.150000000000000000e+02 6.556070387391068621e+00
7.160000000000000000e+02 6.822811734909679515e+00
7.170000000000000000e+02 6.244846090644890602e+00
7.180000000000000000e+02 2.446597513065098095e+00
7.190000000000000000e+02 2.539298797759780957e+00
7.200000000000000000e+02 2.399511494088419461e+00
7.210000000000000000e+02 2.251920225632468409e+00
7.220000000000000000e+02 3.815238917444513600e+00
7.230000000000000000e+02 2.559063982576231133e+00
7.240000000000000000e+02 4.490543907092032772e-01
7.250000000000000000e+02 3.716575034432767488e+00
7.260000000000000000e+02 5.318888115121340299e+00
7.270000000000000000e+02 1.947935273179729476e+00
7.280000000000000000e+02 2.600656638456909864e+00
7.290000000000000000e+02 6.165979313835332043e+00
7.300000000000000000e+02 6.907729059738636934e+00
7.310000000000000000e+02 5.764066150591089510e+00
7.320000000000000000e+02 5.685868985065418713e+00
7.330000000000000000e+02 9.083513075917856838e+00
7.340000000000000000e+02 6.865417477079389208e+00
7.350000000000000000e+02 5.744972935697983729e+00
7.360000000000000000e+02 6.375227180045627051e+00
7.370000000000000000e+02 8.402726375233337208e+00
7.380000000000000000e+02 1.054624138871601779e+01
7.390000000000000000e+02 1.166089777846920761e+01
7.400000000000000000e+02 1.120840344534327571e+01
7.410000000000000000e+02 9.461713157196195212e+00
7.420000000000000000e+02 1.188413308649662881e+01
7.430000000000000000e+02 1.370925780750882339e+01
7.440000000000000000e+02 1.370801039817502343e+01
7.450000000000000000e+02 1.150105302841729049e+01
7.460000000000000000e+02 1.203035474175486108e+01
7.470000000000000000e+02 1.590696772708420070e+01
7.480000000000000000e+02 1.421874522713128108e+01
7.490000000000000000e+02 1.426448988799004880e+01
7.500000000000000000e+02 1.675618139153881714e+01
7.510000000000000000e+02 1.976076649035465849e+01
7.520000000000000000e+02 1.795675225471893910e+01
7.530000000000000000e+02 1.507942571132308274e+01
7.540000000000000000e+02 1.786746606720601349e+01
7.550000000000000000e+02 2.276564626633475541e+01
7.560000000000000000e+02 1.703270917859360978e+01
7.570000000000000000e+02 1.536357332088778271e+01
7.580000000000000000e+02 1.681430904791536562e+01
7.590000000000000000e+02 1.405317204314452972e+01
7.600000000000000000e+02 9.995602170504048090e+00
7.610000000000000000e+02 9.422077832192494284e+00
7.620000000000000000e+02 1.017568796058909797e+01
7.630000000000000000e+02 1.210855542626010717e+01
7.640000000000000000e+02 1.057590119477290003e+01
7.650000000000000000e+02 1.127547481020535081e+01
7.660000000000000000e+02 7.888307627463236216e+00
7.670000000000000000e+02 7.825166914540496066e+00
7.680000000000000000e+02 1.051986774818501758e+01
7.690000000000000000e+02 8.631856822028622034e+00
7.700000000000000000e+02 6.890711748652054602e+00
7.710000000000000000e+02 4.565860251607569253e+00
7.720000000000000000e+02 2.770409096660459980e+00
7.730000000000000000e+02 3.223964876814583214e+00
7.740000000000000000e+02 2.470571771624168633e+00
7.750000000000000000e+02 2.166089066168819688e+00
7.760000000000000000e+02 7.606827836645215779e-01
7.770000000000000000e+02 3.954046001451933190e+00
7.780000000000000000e+02 3.549656784692003075e+00
7.790000000000000000e+02 2.152902407714665234e+00
7.800000000000000000e+02 2.484719589089295688e+00
7.810000000000000000e+02 1.797085931964385708e+00
7.820000000000000000e+02 1.286574150176309494e+00
7.830000000000000000e+02 5.313141891723561772e-01
7.840000000000000000e+02 2.776828564820582823e+00
7.850000000000000000e+02 1.061954119477292124e+00
7.860000000000000000e+02 3.972429693009780216e+00
7.870000000000000000e+02 3.348076148724303813e+00
7.880000000000000000e+02 2.128709168014955022e+00
7.890000000000000000e+02 8.167666996474252095e-01
7.900000000000000000e+02 3.634823031529011317e+00
7.910000000000000000e+02 6.512462489110097508e+00
7.920000000000000000e+02 4.731334153463335745e+00
7.930000000000000000e+02 4.829681696535977231e+00
7.940000000000000000e+02 4.966035282721406041e+00
7.950000000000000000e+02 7.474935745695866274e+00
7.960000000000000000e+02 8.426915762912175367e+00
7.970000000000000000e+02 1.318403306782802176e+01
7.980000000000000000e+02 1.583289970130682534e+01
7.990000000000000000e+02 1.271753869321720032e+01
8.000000000000000000e+02 1.128678427504667958e+01
8.010000000000000000e+02 1.096698122588674451e+01
8.020000000000000000e+02 1.119780639701307301e+01
8.030000000000000000e+02 1.268633242480814438e+01
8.040000000000000000e+02 1.314051369010579329e+01
8.050000000000000000e+02 1.580005790292481826e+01
8.060000000000000000e+02 1.493127620618117213e+01
8.070000000000000000e+02 1.310337780750890957e+01
8.080000000000000000e+02 1.940403429786359268e+01
8.090000000000000000e+02 1.938219927001222942e+01
8.100000000000000000e+02 1.447723564405723451e+01
8.110000000000000000e+02 1.886486084214872250e+01
8.120000000000000000e+02 2.109558328494403767e+01
8.130000000000000000e+02 2.330113240821400922e+01
8.140000000000000000e+02 2.448580375233355610e+01
8.150000000000000000e+02 2.314569662380755943e+01
8.160000000000000000e+02 2.121237130885707600e+01
8.170000000000000000e+02 1.980081319643227644e+01
8.180000000000000000e+02 2.262686414143514924e+01
8.190000000000000000e+02 2.354809011823273224e+01
8.200000000000000000e+02 2.551831807301396537e+01
8.210000000000000000e+02 2.715888251762759609e+01
8.220000000000000000e+02 2.595955655050807920e+01
8.230000000000000000e+02 2.331843490354692960e+01
8.240000000000000000e+02 2.318907767890501503e+01
8.250000000000000000e+02 2.754672490562131060e+01
8.260000000000000000e+02 2.705706676623093898e+01
8.270000000000000000e+02 2.028084682431041585e+01
8.280000000000000000e+02 2.287012041070298807e+01
8.290000000000000000e+02 2.644501272350135679e+01
8.300000000000000000e+02 2.473727335615018674e+01
8.310000000000000000e+02 2.386407196017423260e+01
8.320000000000000000e+02 2.545160116988176568e+01
8.330000000000000000e+02 2.351750675171124527e+01
8.340000000000000000e+02 2.588510114291644726e+01
8.350000000000000000e+02 2.529594854624635758e+01
8.360000000000000000e+02 2.380734880522703989e+01
8.370000000000000000e+02 1.795103186060973144e+01
8.380000000000000000e+02 1.794993226047291301e+01
8.390000000000000000e+02 1.863734723708761010e+01
8.400000000000000000e+02 1.557442844430618933e+01
8.410000000000000000e+02 1.732757388635416973e+01
8.420000000000000000e+02 1.347642870566271611e+01
8.430000000000000000e+02 1.760976942957896796e+01
8.440000000000000000e+02 1.633297556615504931e+01
8.450000000000000000e+02 1.300702498444308830e+01
8.460000000000000000e+02 1.753009171748606221e+01
8.470000000000000000e+02 2.061285659684774885e+01
8.480000000000000000e+02 1.847149072599044572e+01
8.490000000000000000e+02 2.058924666459242303e+01
8.500000000000000000e+02 2.589122049159928096e+01
8.510000000000000000e+02 2.672086336029869713e+01
8.520000000000000000e+02 2.767482239991702642e+01
8.530000000000000000e+02 2.965824189587223358e+01
8.540000000000000000e+02 2.541025659821610461e+01
8.550000000000000000e+02 2.657590254511505989e+01
8.560000000000000000e+02 2.887254654635960449e+01
8.570000000000000000e+02 2.295912666666666624e+01
8.580000000000000000e+02 2.567109184816424872e+01
8.590000000000000000e+02 2.799586807716242376e+01
8.600000000000000000e+02 2.803084301804604905e+01
8.610000000000000000e+02 2.813062992740094970e+01
8.620000000000000000e+02 2.843301816013275385e+01
8.630000000000000000e+02 2.903057465878448440e+01
8.640000000000000000e+02 2.707817988593949821e+01
8.650000000000000000e+02 2.516926525202239517e+01
8.660000000000000000e+02 2.680471274839245055e+01
8.670000000000000000e+02 2.694094513479882025e+01
8.680000000000000000e+02 3.000503772868697183e+01
8.690000000000000000e+02 3.327263695084003814e+01
8.700000000000000000e+02 3.344776280588968831e+01
8.710000000000000000e+02 3.088992874092515351e+01
8.720000000000000000e+02 3.170606212611482277e+01
8.730000000000000000e+02 3.215899059116374303e+01
8.740000000000000000e+02 2.889185421489327865e+01
8.750000000000000000e+02 2.674788403028426842e+01
8.760000000000000000e+02 2.413055117195589716e+01
8.770000000000000000e+02 2.890410257622902535e+01
8.780000000000000000e+02 2.597004250155569949e+01
8.790000000000000000e+02 2.557778408421489047e+01
8.800000000000000000e+02 2.391733889027174342e+01
8.810000000000000000e+02 2.277479318813526987e+01
8.820000000000000000e+02 2.652382246421914402e+01
8.830000000000000000e+02 2.701543987761865040e+01
8.840000000000000000e+02 1.950403364032374398e+01
8.850000000000000000e+02 1.951170843393483878e+01
8.860000000000000000e+02 1.524270923459850557e+01
8.870000000000000000e+02 1.971130030491576690e+01
8.880000000000000000e+02 1.401128880937615051e+01
8.890000000000000000e+02 1.096533333886346284e+01
8.900000000000000000e+02 1.364283504459645968e+01
8.910000000000000000e+02 1.489282082140640640e+01
8.920000000000000000e+02 1.329527661136459571e+01
8.930000000000000000e+02 1.142666326488285122e+01
8.940000000000000000e+02 5.829506682638513126e+00
8.950000000000000000e+02 2.565782480713397540e+00
8.960000000000000000e+02 6.204680416303721024e+00
8.970000000000000000e+02 5.643518247251567033e+00
8.980000000000000000e+02 1.500309133969186082e+00
8.990000000000000000e+02 2.622326387471611397e+00
9.000000000000000000e+02 4.908370771001908217e+00
9.010000000000000000e+02 3.569808787432742214e+00
9.020000000000000000e+02 2.150817425845921449e-01
9.030000000000000000e+02 2.265873673719298598e+00
9.040000000000000000e+02 5.540234043144483422e+00
9.050000000000000000e+02 7.638836532669524892e+00
9.060000000000000000e+02 8.290627602157229603e+00
9.070000000000000000e+02 8.002130384360102155e+00
9.080000000000000000e+02 7.268882446173012823e+00
9.090000000000000000e+02 3.981525734909863168e+00
9.100000000000000000e+02 1.002774542003747937e+00
9.110000000000000000e+02 1.307016548019068525e+00
9.120000000000000000e+02 2.303112455507164924e+00
9.130000000000000000e+02 2.232214901057862022e+00
9.140000000000000000e+02 3.216668128811482674e+00
9.150000000000000000e+02 2.800270338311527052e+00
9.160000000000000000e+02 8.365685675170340119e-01
9.170000000000000000e+02 4.828409676415746921e-01
9.180000000000000000e+02 2.036649156169979824e-01
9.190000000000000000e+02 7.282179284381355977e-01
9.200000000000000000e+02 1.113484789877520864e+00
9.210000000000000000e+02 2.590442946910108457e+00
9.220000000000000000e+02 3.686318695084081831e+00
9.230000000000000000e+02 2.371341927815699968e+00
9.240000000000000000e+02 8.162926883035109826e-01
9.250000000000000000e+02 1.939379303049160175e-01
9.260000000000000000e+02 4.087170952914322974e+00
9.270000000000000000e+02 8.057861252592338985e+00
9.280000000000000000e+02 1.024430145737403564e+01
9.290000000000000000e+02 9.646794300767400188e+00
9.300000000000000000e+02 7.046570102675841163e+00
9.310000000000000000e+02 8.588163359469008995e+00
9.320000000000000000e+02 8.258041755444875065e+00
9.330000000000000000e+02 4.353113030491609692e+00
9.340000000000000000e+02 8.159198123833318661e+00
9.350000000000000000e+02 9.127226913503411865e+00
9.360000000000000000e+02 1.132373618129004811e+01
9.370000000000000000e+02 1.455269768512758866e+01
9.380000000000000000e+02 1.691588861260896337e+01
9.390000000000000000e+02 1.716645594897326177e+01
9.400000000000000000e+02 1.247914133582247231e+01
9.410000000000000000e+02 1.119914732061385720e+01
9.420000000000000000e+02 1.517236246421910018e+01
9.430000000000000000e+02 1.693114730968678572e+01
9.440000000000000000e+02 1.661953588881977240e+01
9.450000000000000000e+02 1.916328454884883215e+01
9.460000000000000000e+02 2.183804714996889018e+01
9.470000000000000000e+02 2.096958359676409245e+01
9.480000000000000000e+02 1.671610922215302608e+01
9.490000000000000000e+02 1.278172630574569446e+01
9.500000000000000000e+02 1.438737641568150316e+01
9.510000000000000000e+02 2.132784369632858912e+01
9.520000000000000000e+02 2.179880803775150611e+01
9.530000000000000000e+02 2.292114380626423653e+01
9.540000000000000000e+02 2.678308488695292411e+01
9.550000000000000000e+02 2.865210543870565374e+01
9.560000000000000000e+02 2.828922948143537397e+01
9.570000000000000000e+02 3.064018415802561179e+01
9.580000000000000000e+02 3.291729202862479298e+01
9.590000000000000000e+02 3.682165401369010738e+01
9.600000000000000000e+02 4.080626569888013933e+01
9.610000000000000000e+02 4.094989742169669000e+01
9.620000000000000000e+02 4.682175527069090748e+01
9.630000000000000000e+02 5.369925218788873877e+01
9.640000000000000000e+02 5.412440237087739803e+01
9.650000000000000000e+02 6.016074020742559725e+01
9.660000000000000000e+02 6.909813929489820339e+01
9.670000000000000000e+02 7.224749788425640418e+01
9.680000000000000000e+02 7.653331191661453659e+01
9.690000000000000000e+02 8.679374870385711915e+01
9.700000000000000000e+02 9.499608563990865662e+01
9.710000000000000000e+02 9.935862014934646425e+01
9.720000000000000000e+02 1.068062047293092860e+02
9.730000000000000000e+02 1.177178294337274451e+02
9.740000000000000000e+02 1.319801945239576639e+02
9.750000000000000000e+02 1.475326663555282494e+02
9.760000000000000000e+02 1.620308838000417779e+02
9.770000000000000000e+02 1.803934717486002910e+02
9.780000000000000000e+02 1.951813956440569484e+02
9.790000000000000000e+02 2.117011686579539003e+02
9.800000000000000000e+02 2.359582679112226913e+02
9.810000000000000000e+02 2.582528809790492232e+02
9.820000000000000000e+02 2.851482657747342842e+02
9.830000000000000000e+02 3.178197439236814148e+02
9.840000000000000000e+02 3.529390985272754619e+02
9.850000000000000000e+02 3.941288372121953785e+02
9.860000000000000000e+02 4.396321113023629437e+02
9.870000000000000000e+02 4.966066309271931232e+02
9.880000000000000000e+02 5.699010042314866951e+02
9.890000000000000000e+02 6.564382041891334438e+02
9.900000000000000000e+02 7.470965400331895125e+02
9.910000000000000000e+02 8.350378856253901176e+02
9.920000000000000000e+02 9.275160442140221448e+02
9.930000000000000000e+02 1.037859734287496622e+03
9.940000000000000000e+02 1.162771670400336916e+03
9.950000000000000000e+02 1.340222272086261910e+03
9.960000000000000000e+02 1.629214901680132243e+03
9.970000000000000000e+02 2.046185326903156920e+03
9.980000000000000000e+02 2.558855434142276408e+03
9.990000000000000000e+02 3.095527199128793200e+03
1.000000000000000000e+03 3.623541528325351464e+03
1.001000000000000000e+03 4.247271327800825020e+03
1.002000000000000000e+03 5.120094219916974907e+03
1.003000000000000000e+03 6.331097352697128372e+03
1.004000000000000000e+03 8.000367751037287235e+03
1.005000000000000000e+03 1.035268495850630825e+04
1.006000000000000000e+03 1.369334082987552210e+04
1.007000000000000000e+03 1.851659460580897212e+04
1.008000000000000000e+03 2.524566273858926797e+04
1.009000000000000000e+03 3.257898458506196403e+04
1.010000000000000000e+03 3.552559331950200431e+04
1.011000000000000000e+03 3.137306759336111281e+04
1.012000000000000000e+03 2.282462062240640080e+04
1.013000000000000000e+03 1.480039966804984033e+04
1.014000000000000000e+03 9.399753000000149768e+03
1.015000000000000000e+03 6.128263717842267397e+03
1.016000000000000000e+03 4.185172748962701007e+03
1.017000000000000000e+03 2.999755881742710244e+03
1.018000000000000000e+03 2.244743581780543536e+03
1.019000000000000000e+03 1.746895390041500832e+03
1.020000000000000000e+03 1.389071780082985242e+03
1.021000000000000000e+03 1.121699269709549981e+03
1.022000000000000000e+03 9.288074688796655209e+02
1.023000000000000000e+03 7.851160887966825612e+02
1.024000000000000000e+03 6.663085732365096874e+02
1.025000000000000000e+03 5.681469939833966691e+02
1.026000000000000000e+03 4.953054111801279760e+02
1.027000000000000000e+03 4.322718850622393916e+02
1.028000000000000000e+03 3.789384925311160828e+02
1.029000000000000000e+03 3.297611879668086772e+02
1.030000000000000000e+03 2.912583680497933756e+02
1.031000000000000000e+03 2.579278261410769346e+02
1.032000000000000000e+03 2.277197000000007847e+02
1.033000000000000000e+03 2.035141497925320948e+02
1.034000000000000000e+03 1.780977112033190792e+02
1.035000000000000000e+03 1.577606142857129612e+02
1.036000000000000000e+03 1.457806958506232604e+02
1.037000000000000000e+03 1.326239526970955467e+02
1.038000000000000000e+03 1.197535813277999921e+02
1.039000000000000000e+03 1.053522244813286051e+02
1.040000000000000000e+03 9.688491547717870844e+01
1.041000000000000000e+03 8.598123950207427413e+01
1.042000000000000000e+03 6.920606506223961674e+01
1.043000000000000000e+03 6.934401817427369963e+01
1.044000000000000000e+03 6.537051024896260287e+01
1.045000000000000000e+03 5.750393170124432629e+01
1.046000000000000000e+03 5.456714858921159106e+01
1.047000000000000000e+03 4.692130142857176622e+01
1.048000000000000000e+03 3.488368010373402939e+01
1.049000000000000000e+03 3.408606350622456915e+01
1.050000000000000000e+03 3.809923267634856359e+01
1.051000000000000000e+03 2.858444983436853448e+01
1.052000000000000000e+03 2.672332460580926394e+01
1.053000000000000000e+03 2.749581020746915883e+01
1.054000000000000000e+03 2.272241804979266533e+01
1.055000000000000000e+03 1.792851476190461213e+01
1.056000000000000000e+03 1.607995612033193922e+01
1.057000000000000000e+03 1.651610860995848640e+01
1.058000000000000000e+03 1.459711923236509712e+01
1.059000000000000000e+03 1.063767443983372551e+01
1.060000000000000000e+03 8.242478568464814970e+00
1.061000000000000000e+03 1.053918052282152651e+01
1.062000000000000000e+03 1.375077825726144276e+01
1.063000000000000000e+03 1.130739800829841890e+01
1.064000000000000000e+03 9.000730761410736136e+00
1.065000000000000000e+03 1.111670643153540361e+01
1.066000000000000000e+03 1.380202126555963815e+01
1.067000000000000000e+03 5.928723236515040185e+00
1.068000000000000000e+03 1.942821024896252524e+00
1.069000000000000000e+03 1.422405908713857192e+00
1.070000000000000000e+03 9.437949875518898413e-01
1.071000000000000000e+03 3.175843510373399514e+00
1.072000000000000000e+03 2.827045282157950368e+00
1.073000000000000000e+03 7.775550684647389410e+00
1.074000000000000000e+03 5.842483184647531580e+00
1.075000000000000000e+03 2.716850697095442690e+00
1.076000000000000000e+03 2.858297478261012436e+00
1.077000000000000000e+03 7.168852721991314070e+00
1.078000000000000000e+03 1.117145394190879060e+01
1.079000000000000000e+03 7.746339331950151674e+00
1.080000000000000000e+03 6.517261701244708050e+00
1.081000000000000000e+03 3.835498767634943906e+00
1.082000000000000000e+03 3.667106253112055736e+00
1.083000000000000000e+03 7.905764632780375223e+00
1.084000000000000000e+03 6.544519373444492416e+00
1.085000000000000000e+03 1.421497713692966958e+00
1.086000000000000000e+03 1.451606468879659273e+00
1.087000000000000000e+03 2.454150186722158011e+00
1.088000000000000000e+03 4.836390373443889001e-01
1.089000000000000000e+03 5.568484502074413367e-01
1.090000000000000000e+03 8.786745435685224814e-01
1.091000000000000000e+03 9.491938423229193678e-01
1.092000000000000000e+03 9.418632153526916184e+00
1.093000000000000000e+03 1.137668078838185615e+01
1.094000000000000000e+03 1.358567439833993795e+01
1.095000000000000000e+03 1.683324526970943680e+01
1.096000000000000000e+03 1.779330522821578242e+01
1.097000000000000000e+03 2.081340062111794609e+01
1.098000000000000000e+03 2.345019431535261134e+01
1.099000000000000000e+03 2.264322358921162603e+01
1.100000000000000000e+03 2.541528900414983028e+01
1.101000000000000000e+03 2.909968681159424264e+01
1.102000000000000000e+03 3.097123937759321777e+01
1.103000000000000000e+03 3.591853141078848211e+01
1.104000000000000000e+03 3.619054203319507224e+01
1.105000000000000000e+03 3.884941107883782507e+01
1.106000000000000000e+03 4.470012458506224107e+01
1.107000000000000000e+03 4.490640956431560937e+01
1.108000000000000000e+03 4.926641128630683397e+01
1.109000000000000000e+03 4.895350460580910834e+01
1.110000000000000000e+03 5.396231879668079046e+01
1.111000000000000000e+03 5.613774414937758195e+01
1.112000000000000000e+03 6.220500423236463661e+01
1.113000000000000000e+03 6.487411165975103700e+01
1.114000000000000000e+03 6.645396518672242792e+01
1.115000000000000000e+03 7.023173933609939468e+01
1.116000000000000000e+03 7.574525497925293394e+01
1.117000000000000000e+03 8.096867122406645478e+01
1.118000000000000000e+03 8.609399381742734647e+01
1.119000000000000000e+03 9.001174721991702654e+01
1.120000000000000000e+03 9.201685012448150758e+01
1.121000000000000000e+03 1.036075966804987871e+02
1.122000000000000000e+03 1.137394593360989461e+02
1.123000000000000000e+03 1.239227622406638432e+02
1.124000000000000000e+03 1.390272288381750343e+02
1.125000000000000000e+03 1.471702618257260724e+02
1.126000000000000000e+03 1.584343913043472583e+02
1.127000000000000000e+03 1.803761319502083325e+02
1.128000000000000000e+03 2.058391070539441898e+02
1.129000000000000000e+03 2.375046983402463070e+02
1.130000000000000000e+03 2.707523913043480661e+02
1.131000000000000000e+03 3.092774800829907349e+02
1.132000000000000000e+03 3.567485713692891522e+02
1.133000000000000000e+03 4.160600056016571102e+02
1.134000000000000000e+03 4.872349809128662059e+02
1.135000000000000000e+03 5.585988049792567836e+02
1.136000000000000000e+03 6.515843510373385925e+02
1.137000000000000000e+03 7.561827012448135292e+02
1.138000000000000000e+03 8.746437186722068873e+02
1.139000000000000000e+03 1.001172733402479253e+03
1.140000000000000000e+03 1.129953964730287680e+03
1.141000000000000000e+03 1.253287860995855226e+03
1.142000000000000000e+03 1.343756815352704507e+03
1.143000000000000000e+03 1.386127423236513323e+03
1.144000000000000000e+03 1.376472269709543298e+03
1.145000000000000000e+03 1.295353929460570953e+03
1.146000000000000000e+03 1.154043275362332679e+03
1.147000000000000000e+03 9.924693261410797049e+02
1.148000000000000000e+03 8.314389392116096360e+02
1.149000000000000000e+03 6.861066205394140525e+02
1.150000000000000000e+03 5.654114400415001001e+02
1.151000000000000000e+03 4.550399398340219932e+02
1.152000000000000000e+03 3.740998921161757380e+02
1.153000000000000000e+03 3.070343651452326412e+02
1.154000000000000000e+03 2.572761912863077214e+02
1.155000000000000000e+03 2.154377633540346437e+02
1.156000000000000000e+03 1.741122448132803981e+02
1.157000000000000000e+03 1.543684205394196169e+02
1.158000000000000000e+03 1.360897890041488836e+02
1.159000000000000000e+03 1.119401174273841235e+02
1.160000000000000000e+03 1.004822570539422060e+02
1.161000000000000000e+03 9.353072979253110475e+01
1.162000000000000000e+03 8.235538556016523160e+01
1.163000000000000000e+03 7.413053865424419087e+01
1.164000000000000000e+03 6.916367217842342541e+01
1.165000000000000000e+03 6.164339261410765403e+01
1.166000000000000000e+03 5.609121732365092328e+01
1.167000000000000000e+03 5.090282066390076210e+01
1.168000000000000000e+03 4.607793485477170492e+01
1.169000000000000000e+03 4.254505755186706040e+01
1.170000000000000000e+03 4.279337809128626446e+01
1.171000000000000000e+03 4.307589128630704778e+01
1.172000000000000000e+03 4.268522448132744529e+01
1.173000000000000000e+03 3.474566898340215459e+01
1.174000000000000000e+03 3.342251443983404613e+01
1.175000000000000000e+03 3.197512796680496194e+01
1.176000000000000000e+03 3.003720663900401888e+01
1.177000000000000000e+03 2.903008589211622237e+01
1.178000000000000000e+03 2.917297236514522396e+01
1.179000000000000000e+03 2.698331717842306077e+01
1.180000000000000000e+03 2.474939199170125548e+01
1.181000000000000000e+03 2.311292286307064003e+01
1.182000000000000000e+03 2.089567107883814145e+01
1.183000000000000000e+03 1.827044207468846793e+01
1.184000000000000000e+03 1.572438000000005864e+01
1.185000000000000000e+03 1.551440000000000019e+01
1.186000000000000000e+03 1.569502157676339849e+01
1.187000000000000000e+03 1.576760078838182899e+01
1.188000000000000000e+03 1.375353304347848571e+01
1.189000000000000000e+03 9.525741020746925969e+00
1.190000000000000000e+03 1.147147904564313059e+01
1.191000000000000000e+03 5.480649964730653245e+00
1.192000000000000000e+03 4.027623173913049470e+00
1.193000000000000000e+03 7.999403941908984628e+00
1.194000000000000000e+03 6.974958485477548820e+00
1.195000000000000000e+03 1.025048236514722877e+00
1.196000000000000000e+03 3.435083519668845842e+00
1.197000000000000000e+03 1.974656533195040531e+00
1.198000000000000000e+03 1.119629591286568360e+00
1.199000000000000000e+03 1.909774298755205324e+00
1.200000000000000000e+03 2.402444701244963898e+00
1.201000000000000000e+03 2.082733900415230544e+00
1.202000000000000000e+03 8.750330912862630539e-01
1.203000000000000000e+03 2.438103755186679322e+00
1.204000000000000000e+03 1.052488414937773786e+00
1.205000000000000000e+03 4.020450877593271244e+00
1.206000000000000000e+03 5.478551261410807172e+00
1.207000000000000000e+03 5.125409192945916459e+00
1.208000000000000000e+03 3.627423630705401525e+00
1.209000000000000000e+03 4.881965394190871166e+00
1.210000000000000000e+03 1.116466302904620900e+00
1.211000000000000000e+03 6.332073178422538362e+00
1.212000000000000000e+03 2.920095887966466908e+00
1.213000000000000000e+03 5.633082120331958542e+00
1.214000000000000000e+03 8.299949578837859221e+00
1.215000000000000000e+03 8.729217574688483694e+00
1.216000000000000000e+03 1.234248883817426012e+01
1.217000000000000000e+03 1.143574799171827117e+01
1.218000000000000000e+03 1.085817709543553633e+01
1.219000000000000000e+03 1.340577751037333698e+01
1.220000000000000000e+03 1.534861078838176418e+01
1.221000000000000000e+03 1.576439869565215801e+01
1.222000000000000000e+03 1.848544802904538642e+01
1.223000000000000000e+03 1.999304280082986551e+01
1.224000000000000000e+03 1.488705371369253427e+01
1.225000000000000000e+03 1.295422708074521623e+01
1.226000000000000000e+03 1.543781207468888006e+01
1.227000000000000000e+03 1.246739601659770535e+01
1.228000000000000000e+03 1.690064775933628738e+01
1.229000000000000000e+03 1.883788431535273844e+01
1.230000000000000000e+03 1.799180761410788065e+01
1.231000000000000000e+03 1.782883192946050954e+01
1.232000000000000000e+03 1.676584116182569062e+01
1.233000000000000000e+03 1.937647686721987839e+01
1.234000000000000000e+03 1.785960016597494615e+01
1.235000000000000000e+03 1.566903863070545100e+01
1.236000000000000000e+03 1.699634871369281797e+01
1.237000000000000000e+03 2.067447460580917706e+01
1.238000000000000000e+03 2.042122670124463113e+01
1.239000000000000000e+03 1.938306753112050984e+01
1.240000000000000000e+03 1.590995709543570946e+01
1.241000000000000000e+03 1.632480302904584590e+01
1.242000000000000000e+03 1.790954095435706250e+01
1.243000000000000000e+03 1.458965103734453095e+01
1.244000000000000000e+03 1.032030345228204560e+01
1.245000000000000000e+03 1.040194049792573594e+01
1.246000000000000000e+03 1.436649360248429019e+01
1.247000000000000000e+03 1.471993997925310005e+01
1.248000000000000000e+03 1.263555479253103897e+01
1.249000000000000000e+03 1.332220919087125566e+01
1.250000000000000000e+03 1.352844769709557049e+01
1.251000000000000000e+03 8.123785854771675474e+00
1.252000000000000000e+03 1.027546339004157794e+01
1.253000000000000000e+03 7.781417195020709165e+00
1.254000000000000000e+03 8.485515258799171789e+00
1.255000000000000000e+03 7.562650427385683827e+00
1.256000000000000000e+03 5.173257931535308884e+00
1.257000000000000000e+03 5.867854551867169199e+00
1.258000000000000000e+03 7.743930161825771208e+00
1.259000000000000000e+03 7.617168141078822785e+00
1.260000000000000000e+03 2.473268751037614344e+00
1.261000000000000000e+03 9.345012199170174005e-01
1.262000000000000000e+03 7.472814024896928586e+00
1.263000000000000000e+03 1.699521904762184121e+00
1.264000000000000000e+03 3.587875730290381426e+00
1.265000000000000000e+03 4.229353464725296163e-01
1.266000000000000000e+03 9.571868838177234329e-01
1.267000000000000000e+03 9.067641452282738657e-01
1.268000000000000000e+03 1.959046348547846650e+00
1.269000000000000000e+03 6.228610568464922892e+00
1.270000000000000000e+03 3.165095983403200641e+00
1.271000000000000000e+03 8.091294149377646905e-01
1.272000000000000000e+03 2.142245066390017882e+00
1.273000000000000000e+03 1.911020732365144026e+00
1.274000000000000000e+03 1.673933605809238667e+00
1.275000000000000000e+03 2.683863819875985435e+00
1.276000000000000000e+03 5.330336904564219047e+00
1.277000000000000000e+03 5.711946033194727157e+00
1.278000000000000000e+03 1.028048178423236259e+01
1.279000000000000000e+03 6.245071676348285195e+00
1.280000000000000000e+03 1.111772369294510066e+00
1.281000000000000000e+03 3.432904869294471695e+00
1.282000000000000000e+03 7.149386313277988236e+00
1.283000000000000000e+03 4.642307797101281608e+00
1.284000000000000000e+03 5.971241991702156415e-01
1.285000000000000000e+03 0.000000000000000000e+00
1.286000000000000000e+03 0.000000000000000000e+00
1.287000000000000000e+03 0.000000000000000000e+00
1.288000000000000000e+03 0.000000000000000000e+00
1.289000000000000000e+03 0.000000000000000000e+00
1.290000000000000000e+03 0.000000000000000000e+00
1.291000000000000000e+03 0.000000000000000000e+00
1.292000000000000000e+03 0.000000000000000000e+00
1.293000000000000000e+03 0.000000000000000000e+00
1.294000000000000000e+03 0.000000000000000000e+00
1.295000000000000000e+03 0.000000000000000000e+00
1.296000000000000000e+03 0.000000000000000000e+00
1.297000000000000000e+03 0.000000000000000000e+00
1.298000000000000000e+03 0.000000000000000000e+00
1.299000000000000000e+03 0.000000000000000000e+00
1.300000000000000000e+03 0.000000000000000000e+00
1.301000000000000000e+03 0.000000000000000000e+00
1.302000000000000000e+03 0.000000000000000000e+00
1.303000000000000000e+03 0.000000000000000000e+00
1.304000000000000000e+03 0.000000000000000000e+00
1.305000000000000000e+03 0.000000000000000000e+00
1.306000000000000000e+03 0.000000000000000000e+00
1.307000000000000000e+03 0.000000000000000000e+00
1.308000000000000000e+03 0.000000000000000000e+00
1.309000000000000000e+03 0.000000000000000000e+00
1.310000000000000000e+03 0.000000000000000000e+00
1.311000000000000000e+03 0.000000000000000000e+00
1.312000000000000000e+03 0.000000000000000000e+00
1.313000000000000000e+03 0.000000000000000000e+00
1.314000000000000000e+03 0.000000000000000000e+00
1.315000000000000000e+03 0.000000000000000000e+00
1.316000000000000000e+03 0.000000000000000000e+00
1.317000000000000000e+03 0.000000000000000000e+00
1.318000000000000000e+03 0.000000000000000000e+00
1.319000000000000000e+03 0.000000000000000000e+00
1.320000000000000000e+03 0.000000000000000000e+00
1.321000000000000000e+03 0.000000000000000000e+00
1.322000000000000000e+03 0.000000000000000000e+00
1.323000000000000000e+03 0.000000000000000000e+00
1.324000000000000000e+03 0.000000000000000000e+00
1.325000000000000000e+03 0.000000000000000000e+00
1.326000000000000000e+03 0.000000000000000000e+00
1.327000000000000000e+03 0.000000000000000000e+00
1.328000000000000000e+03 0.000000000000000000e+00
1.329000000000000000e+03 0.000000000000000000e+00
1.330000000000000000e+03 0.000000000000000000e+00
1.331000000000000000e+03 0.000000000000000000e+00
1.332000000000000000e+03 0.000000000000000000e+00
1.333000000000000000e+03 0.000000000000000000e+00
1.334000000000000000e+03 0.000000000000000000e+00
1.335000000000000000e+03 0.000000000000000000e+00
1.336000000000000000e+03 0.000000000000000000e+00
1.337000000000000000e+03 0.000000000000000000e+00
1.338000000000000000e+03 0.000000000000000000e+00
1.339000000000000000e+03 0.000000000000000000e+00
1.340000000000000000e+03 0.000000000000000000e+00
1.341000000000000000e+03 0.000000000000000000e+00
1.342000000000000000e+03 0.000000000000000000e+00
1.343000000000000000e+03 0.000000000000000000e+00
1.344000000000000000e+03 0.000000000000000000e+00
1.345000000000000000e+03 0.000000000000000000e+00
1.346000000000000000e+03 0.000000000000000000e+00
1.347000000000000000e+03 0.000000000000000000e+00
1.348000000000000000e+03 0.000000000000000000e+00
1.349000000000000000e+03 0.000000000000000000e+00
1.350000000000000000e+03 0.000000000000000000e+00
1.351000000000000000e+03 0.000000000000000000e+00
1.352000000000000000e+03 0.000000000000000000e+00
1.353000000000000000e+03 0.000000000000000000e+00
1.354000000000000000e+03 0.000000000000000000e+00
1.355000000000000000e+03 0.000000000000000000e+00
1.356000000000000000e+03 0.000000000000000000e+00
1.357000000000000000e+03 0.000000000000000000e+00
1.358000000000000000e+03 0.000000000000000000e+00
1.359000000000000000e+03 0.000000000000000000e+00
1.360000000000000000e+03 0.000000000000000000e+00
1.361000000000000000e+03 0.000000000000000000e+00
1.362000000000000000e+03 0.000000000000000000e+00
1.363000000000000000e+03 0.000000000000000000e+00
1.364000000000000000e+03 0.000000000000000000e+00
1.365000000000000000e+03 0.000000000000000000e+00
1.366000000000000000e+03 0.000000000000000000e+00
1.367000000000000000e+03 0.000000000000000000e+00
1.368000000000000000e+03 0.000000000000000000e+00
1.369000000000000000e+03 0.000000000000000000e+00
1.370000000000000000e+03 0.000000000000000000e+00
1.371000000000000000e+03 0.000000000000000000e+00
1.372000000000000000e+03 0.000000000000000000e+00
1.373000000000000000e+03 0.000000000000000000e+00
1.374000000000000000e+03 0.000000000000000000e+00
1.375000000000000000e+03 0.000000000000000000e+00
1.376000000000000000e+03 0.000000000000000000e+00
1.377000000000000000e+03 0.000000000000000000e+00
1.378000000000000000e+03 0.000000000000000000e+00
1.379000000000000000e+03 0.000000000000000000e+00
1.380000000000000000e+03 0.000000000000000000e+00
1.381000000000000000e+03 0.000000000000000000e+00
1.382000000000000000e+03 0.000000000000000000e+00
1.383000000000000000e+03 0.000000000000000000e+00
1.384000000000000000e+03 0.000000000000000000e+00
1.385000000000000000e+03 0.000000000000000000e+00
1.386000000000000000e+03 0.000000000000000000e+00
1.387000000000000000e+03 0.000000000000000000e+00
1.388000000000000000e+03 0.000000000000000000e+00
1.389000000000000000e+03 0.000000000000000000e+00
1.390000000000000000e+03 0.000000000000000000e+00
1.391000000000000000e+03 0.000000000000000000e+00
1.392000000000000000e+03 0.000000000000000000e+00
1.393000000000000000e+03 0.000000000000000000e+00
1.394000000000000000e+03 0.000000000000000000e+00
1.395000000000000000e+03 0.000000000000000000e+00
1.396000000000000000e+03 0.000000000000000000e+00
1.397000000000000000e+03 0.000000000000000000e+00
1.398000000000000000e+03 0.000000000000000000e+00
1.399000000000000000e+03 0.000000000000000000e+00
1.400000000000000000e+03 0.000000000000000000e+00
1.401000000000000000e+03 0.000000000000000000e+00
1.402000000000000000e+03 0.000000000000000000e+00
1.403000000000000000e+03 0.000000000000000000e+00
1.404000000000000000e+03 0.000000000000000000e+00
1.405000000000000000e+03 0.000000000000000000e+00
1.406000000000000000e+03 0.000000000000000000e+00
1.407000000000000000e+03 0.000000000000000000e+00
1.408000000000000000e+03 0.000000000000000000e+00
1.409000000000000000e+03 0.000000000000000000e+00
1.410000000000000000e+03 0.000000000000000000e+00
1.411000000000000000e+03 0.000000000000000000e+00
1.412000000000000000e+03 0.000000000000000000e+00
1.413000000000000000e+03 0.000000000000000000e+00
1.414000000000000000e+03 0.000000000000000000e+00
1.415000000000000000e+03 0.000000000000000000e+00
1.416000000000000000e+03 0.000000000000000000e+00
1.417000000000000000e+03 0.000000000000000000e+00
1.418000000000000000e+03 0.000000000000000000e+00
1.419000000000000000e+03 0.000000000000000000e+00
1.420000000000000000e+03 0.000000000000000000e+00
1.421000000000000000e+03 0.000000000000000000e+00
1.422000000000000000e+03 0.000000000000000000e+00
1.423000000000000000e+03 0.000000000000000000e+00
1.424000000000000000e+03 0.000000000000000000e+00
1.425000000000000000e+03 0.000000000000000000e+00
1.426000000000000000e+03 0.000000000000000000e+00
1.427000000000000000e+03 0.000000000000000000e+00
1.428000000000000000e+03 0.000000000000000000e+00
1.429000000000000000e+03 0.000000000000000000e+00
1.430000000000000000e+03 0.000000000000000000e+00
1.431000000000000000e+03 0.000000000000000000e+00
1.432000000000000000e+03 0.000000000000000000e+00
1.433000000000000000e+03 0.000000000000000000e+00
1.434000000000000000e+03 0.000000000000000000e+00
1.435000000000000000e+03 0.000000000000000000e+00
1.436000000000000000e+03 0.000000000000000000e+00
1.437000000000000000e+03 0.000000000000000000e+00
1.438000000000000000e+03 0.000000000000000000e+00
1.439000000000000000e+03 0.000000000000000000e+00
1.440000000000000000e+03 0.000000000000000000e+00
1.441000000000000000e+03 0.000000000000000000e+00
1.442000000000000000e+03 0.000000000000000000e+00
1.443000000000000000e+03 0.000000000000000000e+00
1.444000000000000000e+03 0.000000000000000000e+00
1.445000000000000000e+03 0.000000000000000000e+00
1.446000000000000000e+03 0.000000000000000000e+00
1.447000000000000000e+03 0.000000000000000000e+00
1.448000000000000000e+03 0.000000000000000000e+00
1.449000000000000000e+03 0.000000000000000000e+00
1.450000000000000000e+03 0.000000000000000000e+00
1.451000000000000000e+03 0.000000000000000000e+00
1.452000000000000000e+03 0.000000000000000000e+00
1.453000000000000000e+03 0.000000000000000000e+00
1.454000000000000000e+03 0.000000000000000000e+00
1.455000000000000000e+03 0.000000000000000000e+00
1.456000000000000000e+03 0.000000000000000000e+00
1.457000000000000000e+03 0.000000000000000000e+00
1.458000000000000000e+03 0.000000000000000000e+00
1.459000000000000000e+03 0.000000000000000000e+00
1.460000000000000000e+03 0.000000000000000000e+00
1.461000000000000000e+03 0.000000000000000000e+00
1.462000000000000000e+03 0.000000000000000000e+00
1.463000000000000000e+03 0.000000000000000000e+00
1.464000000000000000e+03 0.000000000000000000e+00
1.465000000000000000e+03 0.000000000000000000e+00
1.466000000000000000e+03 0.000000000000000000e+00
1.467000000000000000e+03 0.000000000000000000e+00
1.468000000000000000e+03 0.000000000000000000e+00
1.469000000000000000e+03 0.000000000000000000e+00
1.470000000000000000e+03 0.000000000000000000e+00
1.471000000000000000e+03 0.000000000000000000e+00
1.472000000000000000e+03 0.000000000000000000e+00
1.473000000000000000e+03 0.000000000000000000e+00
1.474000000000000000e+03 0.000000000000000000e+00
1.475000000000000000e+03 0.000000000000000000e+00
1.476000000000000000e+03 0.000000000000000000e+00
1.477000000000000000e+03 0.000000000000000000e+00
1.478000000000000000e+03 0.000000000000000000e+00
1.479000000000000000e+03 0.000000000000000000e+00
1.480000000000000000e+03 0.000000000000000000e+00
1.481000000000000000e+03 0.000000000000000000e+00
1.482000000000000000e+03 0.000000000000000000e+00
1.483000000000000000e+03 0.000000000000000000e+00
1.484000000000000000e+03 0.000000000000000000e+00
1.485000000000000000e+03 0.000000000000000000e+00
1.486000000000000000e+03 0.000000000000000000e+00
1.487000000000000000e+03 0.000000000000000000e+00
1.488000000000000000e+03 0.000000000000000000e+00
1.489000000000000000e+03 0.000000000000000000e+00
1.490000000000000000e+03 0.000000000000000000e+00
1.491000000000000000e+03 0.000000000000000000e+00
1.492000000000000000e+03 0.000000000000000000e+00
1.493000000000000000e+03 0.000000000000000000e+00
1.494000000000000000e+03 0.000000000000000000e+00
1.495000000000000000e+03 0.000000000000000000e+00
1.496000000000000000e+03 0.000000000000000000e+00
1.497000000000000000e+03 0.000000000000000000e+00
1.498000000000000000e+03 0.000000000000000000e+00
1.499000000000000000e+03 0.000000000000000000e+00
1.500000000000000000e+03 0.000000000000000000e+00
