1.010000000000000000e+02 0.000000000000000000e+00
1.020000000000000000e+02 0.000000000000000000e+00
1.030000000000000000e+02 0.000000000000000000e+00
1.040000000000000000e+02 0.000000000000000000e+00
1.050000000000000000e+02 0.000000000000000000e+00
1.060000000000000000e+02 0.000000000000000000e+00
1.070000000000000000e+02 0.000000000000000000e+00
1.080000000000000000e+02 0.000000000000000000e+00
1.090000000000000000e+02 0.000000000000000000e+00
1.100000000000000000e+02 0.000000000000000000e+00
1.110000000000000000e+02 0.000000000000000000e+00
1.120000000000000000e+02 0.000000000000000000e+00
1.130000000000000000e+02 0.000000000000000000e+00
1.140000000000000000e+02 0.000000000000000000e+00
1.150000000000000000e+02 0.000000000000000000e+00
1.160000000000000000e+02 0.000000000000000000e+00
1.170000000000000000e+02 0.000000000000000000e+00
1.180000000000000000e+02 0.000000000000000000e+00
1.190000000000000000e+02 0.000000000000000000e+00
1.200000000000000000e+02 0.000000000000000000e+00
1.210000000000000000e+02 0.000000000000000000e+00
1.220000000000000000e+02 0.000000000000000000e+00
1.230000000000000000e+02 0.000000000000000000e+00
1.240000000000000000e+02 0.000000000000000000e+00
1.250000000000000000e+02 0.000000000000000000e+00
1.260000000000000000e+02 2.991237585563305545e-02
1.270000000000000000e+02 5.421050151144851670e-01
1.280000000000000000e+02 8.923562451980997068e+00
1.290000000000000000e+02 2.289065921800452941e+01
1.300000000000000000e+02 3.667910306990238212e+01
1.310000000000000000e+02 5.602661433727443097e+01
1.320000000000000000e+02 8.248005317361560174e+01
1.330000000000000000e+02 1.179238753785521965e+02
1.340000000000000000e+02 1.689178894649518838e+02
1.350000000000000000e+02 2.429482870151428244e+02
1.360000000000000000e+02 3.417809724953339128e+02
1.370000000000000000e+02 4.558045721899627551e+02
1.380000000000000000e+02 5.571439899813316288e+02
1.390000000000000000e+02 5.376351126737201866e+02
1.400000000000000000e+02 4.115046801078597696e+02
1.410000000000000000e+02 2.440957471064089930e+02
1.420000000000000000e+02 1.308062272764987881e+02
1.430000000000000000e+02 6.810109973656965110e+01
1.440000000000000000e+02 3.315952030076718415e+01
1.450000000000000000e+02 1.650678367766017729e+01
1.460000000000000000e+02 1.276362286247666944e+01
1.470000000000000000e+02 7.418817779713787530e+00
1.480000000000000000e+02 7.678846802986335263e+00
1.490000000000000000e+02 1.139512339556111442e+01
1.500000000000000000e+02 1.365088173615432687e+01
1.510000000000000000e+02 1.809807987142260899e+01
1.520000000000000000e+02 1.646333176934247433e+01
1.530000000000000000e+02 1.733948249740721081e+01
1.540000000000000000e+02 1.871717888819746278e+01
1.550000000000000000e+02 1.351296722464221745e+01
1.560000000000000000e+02 6.602748326488336872e+00
1.570000000000000000e+02 4.093742453225477362e+00
1.580000000000000000e+02 2.942177726197863663e+00
1.590000000000000000e+02 5.408286868519245338e-01
1.600000000000000000e+02 1.626458761045397106e+00
1.610000000000000000e+02 2.590409941920762460e+00
1.620000000000000000e+02 3.226253045624230431e+00
1.630000000000000000e+02 4.591385206803566987e+00
1.640000000000000000e+02 4.326223485998762719e+00
1.650000000000000000e+02 8.976615737399485928e-01
1.660000000000000000e+02 2.863355719145387557e+00
1.670000000000000000e+02 8.143110423148703925e-01
1.680000000000000000e+02 4.192374552997253923e-01
1.690000000000000000e+02 1.629303682638440609e+00
1.700000000000000000e+02 1.973192701368722712e+00
1.710000000000000000e+02 2.822888776602371586e+00
1.720000000000000000e+02 5.251002715204314164e+00
1.730000000000000000e+02 2.879193738697670923e+00
1.740000000000000000e+02 1.188568790914741102e+00
1.750000000000000000e+02 2.102747051234197251e+00
1.760000000000000000e+02 3.067265654500211269e+00
1.770000000000000000e+02 2.047820211366905951e+00
1.780000000000000000e+02 5.703464828873718417e+00
1.790000000000000000e+02 9.466191047915392787e+00
1.800000000000000000e+02 1.257105295581829552e+01
1.810000000000000000e+02 1.302018900020739878e+01
1.820000000000000000e+02 1.962197172578298066e+01
1.830000000000000000e+02 2.639178265090234632e+01
1.840000000000000000e+02 3.127267126088760563e+01
1.850000000000000000e+02 3.642325976975727286e+01
1.860000000000000000e+02 4.515524540759167138e+01
1.870000000000000000e+02 5.657018546868530962e+01
1.880000000000000000e+02 6.753156265712510731e+01
1.890000000000000000e+02 7.878937092719348811e+01
1.900000000000000000e+02 9.474368772293637164e+01
1.910000000000000000e+02 1.077229671437462457e+02
1.920000000000000000e+02 1.200694879900436405e+02
1.930000000000000000e+02 1.336461110765401088e+02
1.940000000000000000e+02 1.491479519186889320e+02
1.950000000000000000e+02 1.689055848786557306e+02
1.960000000000000000e+02 1.866148145612944518e+02
1.970000000000000000e+02 2.082212843808338789e+02
1.980000000000000000e+02 2.400203975938600252e+02
1.990000000000000000e+02 2.784914502385397554e+02
2.000000000000000000e+02 3.265874601327530513e+02
2.010000000000000000e+02 3.889063797179594530e+02
2.020000000000000000e+02 4.646702528313623475e+02
2.030000000000000000e+02 5.485352468367550500e+02
2.040000000000000000e+02 6.327124839485695702e+02
2.050000000000000000e+02 7.199007512756692222e+02
2.060000000000000000e+02 8.033371706285001892e+02
2.070000000000000000e+02 8.763453693217167029e+02
2.080000000000000000e+02 9.433368905206394857e+02
2.090000000000000000e+02 9.857423900643021852e+02
2.100000000000000000e+02 1.026975286455092146e+03
2.110000000000000000e+02 1.081251481020534811e+03
2.120000000000000000e+02 1.142819373988799043e+03
2.130000000000000000e+02 1.225843101431238892e+03
2.140000000000000000e+02 1.330948045841111934e+03
2.150000000000000000e+02 1.457195802115743163e+03
2.160000000000000000e+02 1.605025672059736507e+03
2.170000000000000000e+02 1.773904476457168130e+03
2.180000000000000000e+02 1.943627962248496942e+03
2.190000000000000000e+02 2.100030174859987255e+03
2.200000000000000000e+02 2.220422344741754387e+03
2.210000000000000000e+02 2.260423561294337105e+03
2.220000000000000000e+02 2.191386002281683432e+03
2.230000000000000000e+02 2.000664990250985511e+03
2.240000000000000000e+02 1.719683375855634722e+03
2.250000000000000000e+02 1.408442000000000689e+03
2.260000000000000000e+02 1.109140086496575350e+03
2.270000000000000000e+02 8.659080835303881258e+02
2.280000000000000000e+02 6.783108068243113848e+02
2.290000000000000000e+02 5.341673630989437243e+02
2.300000000000000000e+02 4.237170139390160557e+02
2.310000000000000000e+02 3.429637921385603363e+02
2.320000000000000000e+02 2.811307245956039083e+02
2.330000000000000000e+02 2.314128671230039913e+02
2.340000000000000000e+02 1.910120436838826379e+02
2.350000000000000000e+02 1.607520002489109743e+02
2.360000000000000000e+02 1.348233497407177879e+02
2.370000000000000000e+02 1.138885348060569811e+02
2.380000000000000000e+02 9.798272128189157115e+01
2.390000000000000000e+02 8.341005024891094877e+01
2.400000000000000000e+02 7.226170238124871048e+01
2.410000000000000000e+02 6.257911744658792941e+01
2.420000000000000000e+02 5.344820377307607373e+01
2.430000000000000000e+02 4.508098214063465292e+01
2.440000000000000000e+02 3.802387332296204647e+01
2.450000000000000000e+02 3.137177183364451238e+01
2.460000000000000000e+02 2.533773834059316599e+01
2.470000000000000000e+02 1.965396452188336696e+01
2.480000000000000000e+02 1.318944499688860006e+01
2.490000000000000000e+02 9.777891439950231245e+00
2.500000000000000000e+02 7.955188770172179957e+00
2.510000000000000000e+02 4.856546348890202758e+00
2.520000000000000000e+02 6.755494337274445815e-01
2.530000000000000000e+02 3.563381113876805673e-01
2.540000000000000000e+02 3.380859379796680164e-01
2.550000000000000000e+02 2.031218936527749541e+00
2.560000000000000000e+02 5.899195066583657443e+00
2.570000000000000000e+02 5.623512479054341817e+00
2.580000000000000000e+02 3.141300456129457075e+00
2.590000000000000000e+02 3.192779969508382276e+00
2.600000000000000000e+02 5.737803678697391163e+00
2.610000000000000000e+02 8.218603362787803235e+00
2.620000000000000000e+02 4.602576062227772269e+00
2.630000000000000000e+02 1.944177967641539162e+00
2.640000000000000000e+02 5.415090035262617452e-01
2.650000000000000000e+02 2.192975437253681825e+00
2.660000000000000000e+02 2.763151205973926494e+00
2.670000000000000000e+02 8.335450489732535218e+00
2.680000000000000000e+02 1.405495940676214595e+01
2.690000000000000000e+02 1.545338632441406190e+01
2.700000000000000000e+02 1.360724455299729208e+01
2.710000000000000000e+02 1.540088242688244513e+01
2.720000000000000000e+02 1.895199359676409046e+01
2.730000000000000000e+02 2.569000669985461727e+01
2.740000000000000000e+02 3.352727073413506531e+01
2.750000000000000000e+02 3.978890593652764096e+01
2.760000000000000000e+02 4.719797736623801399e+01
2.770000000000000000e+02 5.774266583074059156e+01
2.780000000000000000e+02 7.234722339970961968e+01
2.790000000000000000e+02 8.920641224595615881e+01
2.800000000000000000e+02 1.061801075710436635e+02
2.810000000000000000e+02 1.324312759800873778e+02
2.820000000000000000e+02 1.587030310244707323e+02
2.830000000000000000e+02 1.818352052063892472e+02
2.840000000000000000e+02 2.037050735739477147e+02
2.850000000000000000e+02 2.270300206553293663e+02
2.860000000000000000e+02 2.494946105164898142e+02
2.870000000000000000e+02 2.702273548641366006e+02
2.880000000000000000e+02 2.919770675378549640e+02
2.890000000000000000e+02 3.189515297863508749e+02
2.900000000000000000e+02 3.508440153080267123e+02
2.910000000000000000e+02 3.823732514623521297e+02
2.920000000000000000e+02 4.179650200788215102e+02
2.930000000000000000e+02 4.617287756896903375e+02
2.940000000000000000e+02 5.118899508815601962e+02
2.950000000000000000e+02 5.602735765401370145e+02
2.960000000000000000e+02 6.103306963285623397e+02
2.970000000000000000e+02 6.538296917237094021e+02
2.980000000000000000e+02 6.788271680356774596e+02
2.990000000000000000e+02 6.765827263845674224e+02
3.000000000000000000e+02 6.467056069072793889e+02
3.010000000000000000e+02 5.847542268145983826e+02
3.020000000000000000e+02 5.008100347438306699e+02
3.030000000000000000e+02 4.145122370670005125e+02
3.040000000000000000e+02 3.358110828701799164e+02
3.050000000000000000e+02 2.671888940883640089e+02
3.060000000000000000e+02 2.129094943580176675e+02
3.070000000000000000e+02 1.725734685607633878e+02
3.080000000000000000e+02 1.414608476249740647e+02
3.090000000000000000e+02 1.183605897324207916e+02
3.100000000000000000e+02 9.966286364578999724e+01
3.110000000000000000e+02 8.459598176519384083e+01
3.120000000000000000e+02 7.364298345778881583e+01
3.130000000000000000e+02 6.644541736001644949e+01
3.140000000000000000e+02 6.212120830118225001e+01
3.150000000000000000e+02 5.641975710226086704e+01
3.160000000000000000e+02 5.052116061605487118e+01
3.170000000000000000e+02 4.661257686994389360e+01
3.180000000000000000e+02 4.273203703173608403e+01
3.190000000000000000e+02 4.036385807093966349e+01
3.200000000000000000e+02 3.846832229827841587e+01
3.210000000000000000e+02 3.678013372951669169e+01
3.220000000000000000e+02 3.620189329184816529e+01
3.230000000000000000e+02 3.614299711263223003e+01
3.240000000000000000e+02 3.809859856046458049e+01
3.250000000000000000e+02 4.008278046463389188e+01
3.260000000000000000e+02 4.150765549263637411e+01
3.270000000000000000e+02 4.346070514208673075e+01
3.280000000000000000e+02 4.558215757934041790e+01
3.290000000000000000e+02 5.082334276026550413e+01
3.300000000000000000e+02 5.768281135034240492e+01
3.310000000000000000e+02 6.453831595312186664e+01
3.320000000000000000e+02 7.178985420157610520e+01
3.330000000000000000e+02 8.278812248288706144e+01
3.340000000000000000e+02 9.410223064509465019e+01
3.350000000000000000e+02 1.068065863334715999e+02
3.360000000000000000e+02 1.224489027172783295e+02
3.370000000000000000e+02 1.354219181705037442e+02
3.380000000000000000e+02 1.482844616341766084e+02
3.390000000000000000e+02 1.638290342667494883e+02
3.400000000000000000e+02 1.806829108898566574e+02
3.410000000000000000e+02 1.957551848164282262e+02
3.420000000000000000e+02 2.118418337896702042e+02
3.430000000000000000e+02 2.315735235843185080e+02
3.440000000000000000e+02 2.537215669570632031e+02
3.450000000000000000e+02 2.773414049574779483e+02
3.460000000000000000e+02 3.029833140012447075e+02
3.470000000000000000e+02 3.316302169259496964e+02
3.480000000000000000e+02 3.609237787181088493e+02
3.490000000000000000e+02 3.888430439029446006e+02
3.500000000000000000e+02 4.101601141879274337e+02
3.510000000000000000e+02 4.190112301804605863e+02
3.520000000000000000e+02 4.263092215308026880e+02
3.530000000000000000e+02 4.149315466293303416e+02
3.540000000000000000e+02 3.863819024056415401e+02
3.550000000000000000e+02 3.483270108483717422e+02
3.560000000000000000e+02 3.036612689483512781e+02
3.570000000000000000e+02 2.628955759228538227e+02
3.580000000000000000e+02 2.260742143123830772e+02
3.590000000000000000e+02 1.913273479568553626e+02
3.600000000000000000e+02 1.599943314807131856e+02
3.610000000000000000e+02 1.378313257622896799e+02
3.620000000000000000e+02 1.196679668533497534e+02
3.630000000000000000e+02 1.049280191621735980e+02
3.640000000000000000e+02 9.242453555693809619e+01
3.650000000000000000e+02 8.081353247044160071e+01
3.660000000000000000e+02 7.054922436748252323e+01
3.670000000000000000e+02 6.349437551960188131e+01
3.680000000000000000e+02 5.773015184194134264e+01
3.690000000000000000e+02 5.139426326073436968e+01
3.700000000000000000e+02 4.367600118855018820e+01
3.710000000000000000e+02 3.791166058494098934e+01
3.720000000000000000e+02 3.326829101846089998e+01
3.730000000000000000e+02 2.700574546152255806e+01
3.740000000000000000e+02 2.008636364862054791e+01
3.750000000000000000e+02 1.567733859987551348e+01
3.760000000000000000e+02 1.209514080273801184e+01
3.770000000000000000e+02 8.403162017423687402e+00
3.780000000000000000e+02 5.538943579755200020e+00
3.790000000000000000e+02 2.850406602364618180e+00
3.800000000000000000e+02 1.003429690728041557e+00
3.810000000000000000e+02 2.297421269238759223e+00
3.820000000000000000e+02 2.635448087930329031e+00
3.830000000000000000e+02 4.248605591163605588e+00
3.840000000000000000e+02 5.959504250155591265e+00
3.850000000000000000e+02 4.907779871007877937e+00
3.860000000000000000e+02 5.691191771624137807e+00
3.870000000000000000e+02 4.870396638871629769e+00
3.880000000000000000e+02 4.142908513894647982e+00
3.890000000000000000e+02 4.706353240821406381e+00
3.900000000000000000e+02 4.885181263638251892e+00
3.910000000000000000e+02 3.102606906262940889e+00
3.920000000000000000e+02 6.686972499481311782e-01
3.930000000000000000e+02 2.404124741132547705e+00
3.940000000000000000e+02 3.420682991910464654e+00
3.950000000000000000e+02 6.316254721219675794e+00
3.960000000000000000e+02 6.851317093549078585e+00
3.970000000000000000e+02 1.134325086496562918e+01
3.980000000000000000e+02 1.477812080896078761e+01
3.990000000000000000e+02 1.677468387056619648e+01
4.000000000000000000e+02 2.357189041692586429e+01
4.010000000000000000e+02 2.526091755444923947e+01
4.020000000000000000e+02 3.095754613150796786e+01
4.030000000000000000e+02 3.818518896079646652e+01
4.040000000000000000e+02 4.424490711885492544e+01
4.050000000000000000e+02 5.086713919933627892e+01
4.060000000000000000e+02 6.011093188342668014e+01
4.070000000000000000e+02 6.947321985687611345e+01
4.080000000000000000e+02 8.011010753578115384e+01
4.090000000000000000e+02 9.375895596764172524e+01
4.100000000000000000e+02 1.111348750725841512e+02
4.110000000000000000e+02 1.315798797137528879e+02
4.120000000000000000e+02 1.566265612321100207e+02
4.130000000000000000e+02 1.877144329531314497e+02
4.140000000000000000e+02 2.253820915162819176e+02
4.150000000000000000e+02 2.704981090437681814e+02
4.160000000000000000e+02 3.264035277063459830e+02
4.170000000000000000e+02 3.906529252644668873e+02
4.180000000000000000e+02 4.572606669985465828e+02
4.190000000000000000e+02 5.252855700124425766e+02
4.200000000000000000e+02 5.963997381248698275e+02
4.210000000000000000e+02 6.650478375855623199e+02
4.220000000000000000e+02 7.332925678904796314e+02
4.230000000000000000e+02 8.054664146650073917e+02
4.240000000000000000e+02 8.843672439742809956e+02
4.250000000000000000e+02 9.730121922422749776e+02
4.260000000000000000e+02 1.080508545737400027e+03
4.270000000000000000e+02 1.203186392657124998e+03
4.280000000000000000e+02 1.340679412570009845e+03
4.290000000000000000e+02 1.490110082140637587e+03
4.300000000000000000e+02 1.641120762082552801e+03
4.310000000000000000e+02 1.783594556938391406e+03
4.320000000000000000e+02 1.893222695913712641e+03
4.330000000000000000e+02 1.948529118025305706e+03
4.340000000000000000e+02 1.926839074880730777e+03
4.350000000000000000e+02 1.815302448569061653e+03
4.360000000000000000e+02 1.634799192283758885e+03
4.370000000000000000e+02 1.426226258037752814e+03
4.380000000000000000e+02 1.228961714226463073e+03
4.390000000000000000e+02 1.058437162207009806e+03
4.400000000000000000e+02 9.190199041070314934e+02
4.410000000000000000e+02 8.195305596225624640e+02
4.420000000000000000e+02 7.474674750881549699e+02
4.430000000000000000e+02 6.956703698195390189e+02
4.440000000000000000e+02 6.622396645790132652e+02
4.450000000000000000e+02 6.472639815805847547e+02
4.460000000000000000e+02 6.501705071976770114e+02
4.470000000000000000e+02 6.656201826005803923e+02
4.480000000000000000e+02 6.900846460485370244e+02
4.490000000000000000e+02 7.160109302634307369e+02
4.500000000000000000e+02 7.386193999377720729e+02
4.510000000000000000e+02 7.577683894627670043e+02
4.520000000000000000e+02 7.595837060360919395e+02
4.530000000000000000e+02 7.263157575399294501e+02
4.540000000000000000e+02 6.510214169259495520e+02
4.550000000000000000e+02 5.478798020535143678e+02
4.560000000000000000e+02 4.446978273387255740e+02
4.570000000000000000e+02 3.511101182742166884e+02
4.580000000000000000e+02 2.813946540966591101e+02
4.590000000000000000e+02 2.291276293092711285e+02
4.600000000000000000e+02 1.886955022401987208e+02
4.610000000000000000e+02 1.605175306160554101e+02
4.620000000000000000e+02 1.401199438705657485e+02
4.630000000000000000e+02 1.200379450020735277e+02
4.640000000000000000e+02 1.052148021779715492e+02
4.650000000000000000e+02 9.385655552582485939e+01
4.660000000000000000e+02 8.071437987971815176e+01
4.670000000000000000e+02 7.278946695291438118e+01
4.680000000000000000e+02 6.767674008089615256e+01
4.690000000000000000e+02 6.244848257362092880e+01
4.700000000000000000e+02 5.728033904169259216e+01
4.710000000000000000e+02 5.277855049159927603e+01
4.720000000000000000e+02 4.718533625881372018e+01
4.730000000000000000e+02 4.409126372121964721e+01
4.740000000000000000e+02 4.165689121526344252e+01
4.750000000000000000e+02 3.770062135034211082e+01
4.760000000000000000e+02 3.296811319435798993e+01
4.770000000000000000e+02 3.140637396390796710e+01
4.780000000000000000e+02 2.734056615432493587e+01
4.790000000000000000e+02 2.365118368595718934e+01
4.800000000000000000e+02 2.066228905206391886e+01
4.810000000000000000e+02 1.736720971997517182e+01
4.820000000000000000e+02 1.368886861854393544e+01
4.830000000000000000e+02 1.136404497822029214e+01
4.840000000000000000e+02 7.559304434764603009e+00
4.850000000000000000e+02 6.071388643020105391e+00
4.860000000000000000e+02 6.071490081310924936e+00
4.870000000000000000e+02 3.822450634723082885e+00
4.880000000000000000e+02 2.853293472308777723e-01
4.890000000000000000e+02 8.045752856254007046e-01
4.900000000000000000e+02 6.904224826799287840e-01
4.910000000000000000e+02 2.510386202820425461e-01
4.920000000000000000e+02 2.107136604393191615e-01
4.930000000000000000e+02 2.935920262011891269e-01
4.940000000000000000e+02 1.723869129406884859e+00
4.950000000000000000e+02 2.350672727442454146e+00
4.960000000000000000e+02 2.566524075917862469e+00
4.970000000000000000e+02 3.413374212152634257e+00
4.980000000000000000e+02 3.189330127152054217e+00
4.990000000000000000e+02 1.389167545416840621e+00
5.000000000000000000e+02 2.824352210537229624e+00
5.010000000000000000e+02 3.105412629744876085e+00
5.020000000000000000e+02 2.579817131922871543e+00
5.030000000000000000e+02 4.597197238747148695e+00
5.040000000000000000e+02 4.202346264882802274e+00
5.050000000000000000e+02 2.818936087118837808e+00
5.060000000000000000e+02 3.218342210329834252e+00
5.070000000000000000e+02 3.672921878033588605e+00
5.080000000000000000e+02 2.266952387471512065e+00
5.090000000000000000e+02 1.372441753370659878e+00
5.100000000000000000e+02 1.346420057871807074e+00
5.110000000000000000e+02 1.156715293092664298e+00
5.120000000000000000e+02 1.557762863098988815e+00
5.130000000000000000e+02 6.573577196184176019e-01
5.140000000000000000e+02 3.462798308649647883e+00
5.150000000000000000e+02 3.393566665214688971e+00
5.160000000000000000e+02 6.008996057249540002e+00
5.170000000000000000e+02 7.747288336652151663e+00
5.180000000000000000e+02 9.598327741393552159e+00
5.190000000000000000e+02 1.374164435594274636e+01
5.200000000000000000e+02 1.520323437461106231e+01
5.210000000000000000e+02 1.623921426793859624e+01
5.220000000000000000e+02 1.986601092719349992e+01
5.230000000000000000e+02 2.396421661273589976e+01
5.240000000000000000e+02 2.683360742845289693e+01
5.250000000000000000e+02 3.013370892345982810e+01
5.260000000000000000e+02 3.413213173407998369e+01
5.270000000000000000e+02 3.882756737453335205e+01
5.280000000000000000e+02 4.227693426467534010e+01
5.290000000000000000e+02 4.727585960796495357e+01
5.300000000000000000e+02 5.581503404480399411e+01
5.310000000000000000e+02 5.923593921593031553e+01
5.320000000000000000e+02 6.609213653391412890e+01
5.330000000000000000e+02 7.500650321510049423e+01
5.340000000000000000e+02 8.174955067828257427e+01
5.350000000000000000e+02 8.706900031321323752e+01
5.360000000000000000e+02 9.794469359054122037e+01
5.370000000000000000e+02 1.069367895457371844e+02
5.380000000000000000e+02 1.141083049782200476e+02
5.390000000000000000e+02 1.225778978842561742e+02
5.400000000000000000e+02 1.318237616054757950e+02
5.410000000000000000e+02 1.397486335407588456e+02
5.420000000000000000e+02 1.487387934246004875e+02
5.430000000000000000e+02 1.556214378967017069e+02
5.440000000000000000e+02 1.644802519286600386e+02
5.450000000000000000e+02 1.740805297241236076e+02
5.460000000000000000e+02 1.823751530387885964e+02
5.470000000000000000e+02 1.903398519701368912e+02
5.480000000000000000e+02 1.966296364032359349e+02
5.490000000000000000e+02 2.020501003111388627e+02
5.500000000000000000e+02 2.083787845707172721e+02
5.510000000000000000e+02 2.148774401369008444e+02
5.520000000000000000e+02 2.200494713130057960e+02
5.530000000000000000e+02 2.258585494608044542e+02
5.540000000000000000e+02 2.315259368388298924e+02
5.550000000000000000e+02 2.393516760008292579e+02
5.560000000000000000e+02 2.480579560464631470e+02
5.570000000000000000e+02 2.569378471064090945e+02
5.580000000000000000e+02 2.671310027795059909e+02
5.590000000000000000e+02 2.774265422941297174e+02
5.600000000000000000e+02 2.928312398175030467e+02
5.610000000000000000e+02 3.061332201617922806e+02
5.620000000000000000e+02 3.186731217797139379e+02
5.630000000000000000e+02 3.341781971795929849e+02
5.640000000000000000e+02 3.477031712507782686e+02
5.650000000000000000e+02 3.589202798382081596e+02
5.660000000000000000e+02 3.719292581294063211e+02
5.670000000000000000e+02 3.839005611076536297e+02
5.680000000000000000e+02 3.927280299108064696e+02
5.690000000000000000e+02 3.997689527996679431e+02
5.700000000000000000e+02 4.055259127566893653e+02
5.710000000000000000e+02 4.085074794648413672e+02
5.720000000000000000e+02 4.040014825762291366e+02
5.730000000000000000e+02 3.949575304501142341e+02
5.740000000000000000e+02 3.822938419829914096e+02
5.750000000000000000e+02 3.609771584526030210e+02
5.760000000000000000e+02 3.362590054760421481e+02
5.770000000000000000e+02 3.103991026343081217e+02
5.780000000000000000e+02 2.822281225057033680e+02
5.790000000000000000e+02 2.541014728686987212e+02
5.800000000000000000e+02 2.288859924704411810e+02
5.810000000000000000e+02 2.047672906658357874e+02
5.820000000000000000e+02 1.812491190416914719e+02
5.830000000000000000e+02 1.586816613853163460e+02
5.840000000000000000e+02 1.375486765608803523e+02
5.850000000000000000e+02 1.197185198506540047e+02
5.860000000000000000e+02 1.058639573206131246e+02
5.870000000000000000e+02 9.050583737606335433e+01
5.880000000000000000e+02 7.907780138767913058e+01
5.890000000000000000e+02 7.004571168394866731e+01
5.900000000000000000e+02 6.232257878655881456e+01
5.910000000000000000e+02 5.585746296411534217e+01
5.920000000000000000e+02 5.043204095810858689e+01
5.930000000000000000e+02 4.465791390582854348e+01
5.940000000000000000e+02 3.961869069072797345e+01
5.950000000000000000e+02 3.763353892575691617e+01
5.960000000000000000e+02 3.576289284795672785e+01
5.970000000000000000e+02 3.166233886330623903e+01
5.980000000000000000e+02 2.862001551130472521e+01
5.990000000000000000e+02 2.908210645924085824e+01
6.000000000000000000e+02 2.963871674408960644e+01
6.010000000000000000e+02 3.028218037751501512e+01
6.020000000000000000e+02 3.049052328147690361e+01
6.030000000000000000e+02 3.043152252384907896e+01
6.040000000000000000e+02 3.316369256378342811e+01
6.050000000000000000e+02 3.700179112009952576e+01
6.060000000000000000e+02 4.507334459145592831e+01
6.070000000000000000e+02 5.699227472723520549e+01
6.080000000000000000e+02 7.274609232109546042e+01
6.090000000000000000e+02 9.362327723086579567e+01
6.100000000000000000e+02 1.186009205931156316e+02
6.110000000000000000e+02 1.393520142294138964e+02
6.120000000000000000e+02 1.570516064094592821e+02
6.130000000000000000e+02 1.739963422231445520e+02
6.140000000000000000e+02 1.932331749222146016e+02
6.150000000000000000e+02 2.182149054760413378e+02
6.160000000000000000e+02 2.521718505391968392e+02
6.170000000000000000e+02 2.975513040448034872e+02
6.180000000000000000e+02 3.478811245799620906e+02
6.190000000000000000e+02 4.006472733305685097e+02
6.200000000000000000e+02 4.570896869321723557e+02
6.210000000000000000e+02 5.164768955818300356e+02
6.220000000000000000e+02 5.770564592285376193e+02
6.230000000000000000e+02 6.329840896701945212e+02
6.240000000000000000e+02 6.413840786558796481e+02
6.250000000000000000e+02 5.760741124248032747e+02
6.260000000000000000e+02 4.486655915785066782e+02
6.270000000000000000e+02 3.191040071561895957e+02
6.280000000000000000e+02 2.262644566894809373e+02
6.290000000000000000e+02 1.639879791329587420e+02
6.300000000000000000e+02 1.248579283343700013e+02
6.310000000000000000e+02 9.952274511512170818e+01
6.320000000000000000e+02 8.299409840696971230e+01
6.330000000000000000e+02 7.625539958307399502e+01
6.340000000000000000e+02 7.380790231487242181e+01
6.350000000000000000e+02 7.378492590541381446e+01
6.360000000000000000e+02 7.448505777224642088e+01
6.370000000000000000e+02 7.650730413192292190e+01
6.380000000000000000e+02 8.040773653183993019e+01
6.390000000000000000e+02 8.448431352758193214e+01
6.400000000000000000e+02 8.387782823895452111e+01
6.410000000000000000e+02 8.051785383322958012e+01
6.420000000000000000e+02 7.352846972625458477e+01
6.430000000000000000e+02 6.350037012238108503e+01
6.440000000000000000e+02 5.212101991910385834e+01
6.450000000000000000e+02 4.061335082330970891e+01
6.460000000000000000e+02 3.163261989421273412e+01
6.470000000000000000e+02 2.570304414021986616e+01
6.480000000000000000e+02 1.995526866860215875e+01
6.490000000000000000e+02 1.448630757934039615e+01
6.500000000000000000e+02 1.031461660858744089e+01
6.510000000000000000e+02 6.497114052893546265e+00
6.520000000000000000e+02 3.333893208048116730e+00
6.530000000000000000e+02 1.961231829288534456e+00
6.540000000000000000e+02 1.005115033395550750e+00
6.550000000000000000e+02 4.693946042314852685e-01
6.560000000000000000e+02 1.612650406139811254e+00
6.570000000000000000e+02 1.047953747355321541e+00
6.580000000000000000e+02 2.632369454470056880e+00
6.590000000000000000e+02 2.919992334370457243e+00
6.600000000000000000e+02 2.204794223397634756e+00
6.610000000000000000e+02 9.972482881145067202e-01
6.620000000000000000e+02 1.033904593349939116e-01
6.630000000000000000e+02 3.913652771209266690e-01
6.640000000000000000e+02 2.464220501970552313e+00
6.650000000000000000e+02 2.313940883011821548e+00
6.660000000000000000e+02 2.157605628577353052e+00
6.670000000000000000e+02 1.792119796307807045e+00
6.680000000000000000e+02 1.438098167392654503e+00
6.690000000000000000e+02 2.950299696806304439e+00
6.700000000000000000e+02 1.509441451151207758e+00
6.710000000000000000e+02 1.366327834474172498e+00
6.720000000000000000e+02 2.032091022812111625e+00
6.730000000000000000e+02 1.049930861232108548e+00
6.740000000000000000e+02 7.803690454262517395e-01
6.750000000000000000e+02 5.637094512650339118e-01
6.760000000000000000e+02 7.273886550508157356e-01
6.770000000000000000e+02 2.263766849201483966e-01
6.780000000000000000e+02 7.037224477577377901e-02
6.790000000000000000e+02 3.205744387056584932e-01
6.800000000000000000e+02 6.218518913088723066e-01
6.810000000000000000e+02 1.785434407176936134e+00
6.820000000000000000e+02 4.758910099564393481e-01
6.830000000000000000e+02 1.828649998133135668e+00
6.840000000000000000e+02 9.673136397013202270e-01
6.850000000000000000e+02 8.262560742584332818e-01
6.860000000000000000e+02 6.942272200788618397e-01
6.870000000000000000e+02 1.145898414436822943e+00
6.880000000000000000e+02 2.139302413814557990e+00
6.890000000000000000e+02 4.176189796723284164e-01
6.900000000000000000e+02 3.307149939846411590e-01
6.910000000000000000e+02 2.128635155984194061e+00
6.920000000000000000e+02 3.809738858150137464e+00
6.930000000000000000e+02 3.329771254511499912e+00
6.940000000000000000e+02 5.749485598423564880e-01
6.950000000000000000e+02 1.816022467855614275e+00
6.960000000000000000e+02 2.682926902924689383e+00
6.970000000000000000e+02 4.183895411947781362e+00
6.980000000000000000e+02 5.058043437992551183e+00
6.990000000000000000e+02 4.935481695706267047e+00
7.000000000000000000e+02 6.393991862891458489e+00
7.010000000000000000e+02 7.618086323102431834e+00
7.020000000000000000e+02 5.720805714996962443e+00
7.030000000000000000e+02 6.227674466500650041e+00
7.040000000000000000e+02 7.880578588467109569e+00
7.050000000000000000e+02 7.730132553619655233e+00
7.060000000000000000e+02 6.103326376477848036e+00
7.070000000000000000e+02 8.657706406969506219e+00
7.080000000000000000e+02 8.859644977598007287e+00
7.090000000000000000e+02 9.608625752540987719e+00
7.100000000000000000e+02 8.666326376892707017e+00
7.110000000000000000e+02 7.389863433934857007e+00
7.120000000000000000e+02 8.847741222775308501e+00
7.130000000000000000e+02 1.063398238124865003e+01
7.140000000000000000e+02 1.175384791329598855e+01
7.150000000000000000e+02 9.368657157021466730e+00
7.160000000000000000e+02 8.566791611698789666e+00
7.170000000000000000e+02 9.929292113254472696e+00
7.180000000000000000e+02 1.055257033976359260e+01
7.190000000000000000e+02 8.749207431771067078e+00
7.200000000000000000e+02 8.710633079029237891e+00
7.210000000000000000e+02 1.038254716241442921e+01
7.220000000000000000e+02 9.407491825798425467e+00
7.230000000000000000e+02 9.128141745903372239e+00
7.240000000000000000e+02 9.864057827836530734e+00
7.250000000000000000e+02 8.768257225217768180e+00
7.260000000000000000e+02 8.959925097075300826e+00
7.270000000000000000e+02 8.711851216759985306e+00
7.280000000000000000e+02 6.531402519286703345e+00
7.290000000000000000e+02 5.777560709188949595e+00
7.300000000000000000e+02 6.709673177349046114e+00
7.310000000000000000e+02 7.841798779091416982e+00
7.320000000000000000e+02 8.871077264882863744e+00
7.330000000000000000e+02 6.755008960174327726e+00
7.340000000000000000e+02 4.180586476042320143e+00
7.350000000000000000e+02 6.270266957062792912e+00
7.360000000000000000e+02 7.919233415059139247e+00
7.370000000000000000e+02 5.660846888612292460e+00
7.380000000000000000e+02 4.072745141257011703e+00
7.390000000000000000e+02 6.259704464219050024e+00
7.400000000000000000e+02 3.828559403235753500e+00
7.410000000000000000e+02 3.478957174445165723e+00
7.420000000000000000e+02 4.534529136486237455e+00
7.430000000000000000e+02 4.219017160340237105e+00
7.440000000000000000e+02 3.061876186060954907e+00
7.450000000000000000e+02 3.867766650560019670e+00
7.460000000000000000e+02 5.356156749637070114e+00
7.470000000000000000e+02 2.753459656502898589e+00
7.480000000000000000e+02 2.822685543757863069e+00
7.490000000000000000e+02 3.718027111387686823e+00
7.500000000000000000e+02 3.261531548226518140e+00
7.510000000000000000e+02 2.097076868934074412e+00
7.520000000000000000e+02 1.765584225042531874e-01
7.530000000000000000e+02 1.253687500311140290e+00
7.540000000000000000e+02 2.005378928245542536e+00
7.550000000000000000e+02 2.460834937772261810e+00
7.560000000000000000e+02 2.780708390375443262e+00
7.570000000000000000e+02 1.791716962248414813e+00
7.580000000000000000e+02 1.244290790290687593e-01
7.590000000000000000e+02 3.809827813316760903e+00
7.600000000000000000e+02 1.313955291433393846e+00
7.610000000000000000e+02 1.405191955195973952e+00
7.620000000000000000e+02 2.982218613980481159e+00
7.630000000000000000e+02 2.497676877411384222e+00
7.640000000000000000e+02 1.394175895457371972e+00
7.650000000000000000e+02 3.252967978220282941e+00
7.660000000000000000e+02 3.498213553619581528e+00
7.670000000000000000e+02 2.992432601742369247e+00
7.680000000000000000e+02 4.013067556938432645e+00
7.690000000000000000e+02 4.446346155154522251e+00
7.700000000000000000e+02 3.549210599045805381e+00
7.710000000000000000e+02 2.886845709811218352e+00
7.720000000000000000e+02 2.676257447739592177e+00
7.730000000000000000e+02 4.526167223397660422e+00
7.740000000000000000e+02 3.595283751296363572e+00
7.750000000000000000e+02 3.346540487349672688e+00
7.760000000000000000e+02 3.651797903132138146e+00
7.770000000000000000e+02 3.188846740510289823e+00
7.780000000000000000e+02 2.915646711323131246e+00
7.790000000000000000e+02 3.627909060360923199e+00
7.800000000000000000e+02 1.787069495955213361e+00
7.810000000000000000e+02 3.115649659062648791e+00
7.820000000000000000e+02 4.308133850653390162e+00
7.830000000000000000e+02 4.228495094171331736e+00
7.840000000000000000e+02 4.381491012442982225e+00
7.850000000000000000e+02 4.722878582451726537e+00
7.860000000000000000e+02 3.274287413192277896e+00
7.870000000000000000e+02 3.454108441194788437e+00
7.880000000000000000e+02 3.642913235635751867e+00
7.890000000000000000e+02 3.037781175689668878e+00
7.900000000000000000e+02 1.247738471064207655e+00
7.910000000000000000e+02 8.648958830118416152e-01
7.920000000000000000e+02 6.851149699232370605e-01
7.930000000000000000e+02 8.501605100601299370e-01
7.940000000000000000e+02 2.356456089193096126e+00
7.950000000000000000e+02 2.006773986932158138e+00
7.960000000000000000e+02 5.978618587429915809e-01
7.970000000000000000e+02 4.115956677037823086e-01
7.980000000000000000e+02 1.594544523127984892e+00
7.990000000000000000e+02 1.132796387412724037e+00
8.000000000000000000e+02 1.567466308027382738e+00
8.010000000000000000e+02 4.355815746578146630e-01
8.020000000000000000e+02 1.918330466708136062e-01
8.030000000000000000e+02 5.667094665007306187e-01
8.040000000000000000e+02 6.513441231853935864e-01
8.050000000000000000e+02 4.554837380211683717e-01
8.060000000000000000e+02 8.219591910392155532e-01
8.070000000000000000e+02 9.969539259489534899e-01
8.080000000000000000e+02 6.891922944836439413e-01
8.090000000000000000e+02 8.148905420037315661e-01
8.100000000000000000e+02 1.050713414436840409e+00
8.110000000000000000e+02 1.538921410825381031e+00
8.120000000000000000e+02 6.804501989491505975e-01
8.130000000000000000e+02 4.959056131508006171e-01
8.140000000000000000e+02 3.328368258527077961e-01
8.150000000000000000e+02 5.907323341630589253e-01
8.160000000000000000e+02 1.912175946069291754e+00
8.170000000000000000e+02 2.130054071769324153e+00
8.180000000000000000e+02 2.314082425430431744e+00
8.190000000000000000e+02 3.998579110143132276e+00
8.200000000000000000e+02 5.242736297448676197e+00
8.210000000000000000e+02 5.087336034640116189e+00
8.220000000000000000e+02 5.945919577058702998e+00
8.230000000000000000e+02 6.225472557975524346e+00
8.240000000000000000e+02 4.669415427504675975e+00
8.250000000000000000e+02 4.487287874299933144e+00
8.260000000000000000e+02 6.442610212611477927e+00
8.270000000000000000e+02 6.002225458203698238e+00
8.280000000000000000e+02 8.508986179800908545e+00
8.290000000000000000e+02 9.700137942750464148e+00
8.300000000000000000e+02 8.590893708981539589e+00
8.310000000000000000e+02 9.326970659477394676e+00
8.320000000000000000e+02 1.201683326073429825e+01
8.330000000000000000e+02 1.366642164281269167e+01
8.340000000000000000e+02 1.389334617171298270e+01
8.350000000000000000e+02 1.400902361750674174e+01
8.360000000000000000e+02 1.540364777432066568e+01
8.370000000000000000e+02 1.728569737038573706e+01
8.380000000000000000e+02 1.596663110143124875e+01
8.390000000000000000e+02 1.589955740095411940e+01
8.400000000000000000e+02 1.884637285625389325e+01
8.410000000000000000e+02 1.998497200373367377e+01
8.420000000000000000e+02 2.014203192283757105e+01
8.430000000000000000e+02 1.819420116988176872e+01
8.440000000000000000e+02 1.825948640738435103e+01
8.450000000000000000e+02 1.830961565857706930e+01
8.460000000000000000e+02 1.835668913088570520e+01
8.470000000000000000e+02 1.828574847542005344e+01
8.480000000000000000e+02 1.720768069280234513e+01
8.490000000000000000e+02 1.647080131300560879e+01
8.500000000000000000e+02 1.528760082140637344e+01
8.510000000000000000e+02 1.362975434972002375e+01
8.520000000000000000e+02 1.431308475420035187e+01
8.530000000000000000e+02 1.485712060983199834e+01
8.540000000000000000e+02 1.396865054334302947e+01
8.550000000000000000e+02 1.263666714019081461e+01
8.560000000000000000e+02 1.086815930512342199e+01
8.570000000000000000e+02 9.350410413192287606e+00
8.580000000000000000e+02 9.915181269182903989e+00
8.590000000000000000e+02 9.654374099564410727e+00
8.600000000000000000e+02 9.351790200788217433e+00
8.610000000000000000e+02 7.663819605143128655e+00
8.620000000000000000e+02 5.517514115121347373e+00
8.630000000000000000e+02 7.118774019290554200e+00
8.640000000000000000e+02 1.062789642472001539e+01
8.650000000000000000e+02 9.324013577266160979e+00
8.660000000000000000e+02 5.280352228375903678e+00
8.670000000000000000e+02 4.561567411325453847e+00
8.680000000000000000e+02 4.850043611906242447e+00
8.690000000000000000e+02 5.264358225679319325e+00
8.700000000000000000e+02 6.566094765401387257e+00
8.710000000000000000e+02 5.294383540136912814e+00
8.720000000000000000e+02 6.595410669985477981e+00
8.730000000000000000e+02 4.552431029869360657e+00
8.740000000000000000e+02 5.246335375025868331e+00
8.750000000000000000e+02 5.974141435594294336e+00
8.760000000000000000e+02 6.525230360920932782e+00
8.770000000000000000e+02 6.965790547396832011e+00
8.780000000000000000e+02 5.334807311346219549e+00
8.790000000000000000e+02 6.613675167392623955e+00
8.800000000000000000e+02 6.664583930927193478e+00
8.810000000000000000e+02 6.752366858150139706e+00
8.820000000000000000e+02 7.013066192906034502e+00
8.830000000000000000e+02 7.581297217589707316e+00
8.840000000000000000e+02 7.402879886354205574e+00
8.850000000000000000e+02 6.336262593030501655e+00
8.860000000000000000e+02 6.696151848579114052e+00
8.870000000000000000e+02 4.822707596847835454e+00
8.880000000000000000e+02 4.966648390582831141e+00
8.890000000000000000e+02 7.383516047293192663e+00
8.900000000000000000e+02 6.082763805682442459e+00
8.910000000000000000e+02 4.855687068243076610e+00
8.920000000000000000e+02 6.424787626840834598e+00
8.930000000000000000e+02 6.982682298485815231e+00
8.940000000000000000e+02 6.029847202240249615e+00
8.950000000000000000e+02 4.655710492014125457e+00
8.960000000000000000e+02 4.620937140634721274e+00
8.970000000000000000e+02 4.593892483094793810e+00
8.980000000000000000e+02 5.135421578095815676e+00
8.990000000000000000e+02 6.072302454262608506e+00
9.000000000000000000e+02 6.756234461522514501e+00
9.010000000000000000e+02 6.827934233354065796e+00
9.020000000000000000e+02 5.193730903339531579e+00
9.030000000000000000e+02 7.001363890479209928e+00
9.040000000000000000e+02 6.342321875959293642e+00
9.050000000000000000e+02 6.102297031113857351e+00
9.060000000000000000e+02 6.185132342181672627e+00
9.070000000000000000e+02 5.464659249118478002e+00
9.080000000000000000e+02 5.004614683260637520e+00
9.090000000000000000e+02 5.857616207218470095e+00
9.100000000000000000e+02 2.408047162829300980e+00
9.110000000000000000e+02 3.641379426882353609e+00
9.120000000000000000e+02 5.130114087533711675e+00
9.130000000000000000e+02 5.238029244555068686e+00
9.140000000000000000e+02 3.969138667081510086e+00
9.150000000000000000e+02 2.297027806886497103e+00
9.160000000000000000e+02 2.141774289566509282e+00
9.170000000000000000e+02 3.700095858120732828e+00
9.180000000000000000e+02 2.161108296204020007e+00
9.190000000000000000e+02 2.107319862269254607e+00
9.200000000000000000e+02 1.812082068228930254e+00
9.210000000000000000e+02 1.383409885915793502e+00
9.220000000000000000e+02 1.415900449284364981e+00
9.230000000000000000e+02 1.375083819576905508e+00
9.240000000000000000e+02 1.562659816635505017e+00
9.250000000000000000e+02 2.788694562953788925e+00
9.260000000000000000e+02 6.118387992534117803e-01
9.270000000000000000e+02 9.587935183571874020e-01
9.280000000000000000e+02 7.830887479775947568e-01
9.290000000000000000e+02 1.161057714641214211e+00
9.300000000000000000e+02 5.850957782617645098e-01
9.310000000000000000e+02 8.416351848164418392e-01
9.320000000000000000e+02 1.617666107216951143e+00
9.330000000000000000e+02 1.750687183571862704e+00
9.340000000000000000e+02 1.347086218627056298e-01
9.350000000000000000e+02 6.655988660029240611e-01
9.360000000000000000e+02 2.466347212197021743e-01
9.370000000000000000e+02 3.875089809207582503e-01
9.380000000000000000e+02 4.111184436838645762e-01
9.390000000000000000e+02 9.456336894834929119e-01
9.400000000000000000e+02 7.293567725010305924e-01
9.410000000000000000e+02 2.347040831985063747e+00
9.420000000000000000e+02 5.701586722671786456e-01
9.430000000000000000e+02 2.639242277063463260e-01
9.440000000000000000e+02 1.873233191868945990e+00
9.450000000000000000e+02 5.542968270067938352e-01
9.460000000000000000e+02 1.845143519286254197e-01
9.470000000000000000e+02 1.811763988799277858e-01
9.480000000000000000e+02 1.265306419829936857e+00
9.490000000000000000e+02 1.773392000622218356e+00
9.500000000000000000e+02 2.867067985015389064e-01
9.510000000000000000e+02 1.932075735324624288e-01
9.520000000000000000e+02 1.029755380846153201e-01
9.530000000000000000e+02 5.204449120514477167e-01
9.540000000000000000e+02 4.376038143924030899e-01
9.550000000000000000e+02 3.423808662103505762e-01
9.560000000000000000e+02 9.905410850269664724e-01
9.570000000000000000e+02 4.228881864550947611e+00
9.580000000000000000e+02 3.848382266957055986e+00
9.590000000000000000e+02 3.144840019908736295e+00
9.600000000000000000e+02 3.915451561916653223e+00
9.610000000000000000e+02 5.538597487243341888e+00
9.620000000000000000e+02 6.585831773283553403e+00
9.630000000000000000e+02 5.216720683053217122e+00
9.640000000000000000e+02 4.599459565650360737e+00
9.650000000000000000e+02 7.020880043559393435e+00
9.660000000000000000e+02 5.883341957892564977e+00
9.670000000000000000e+02 7.614460178593689399e+00
9.680000000000000000e+02 1.004144530346398057e+01
9.690000000000000000e+02 1.019629961418793584e+01
9.700000000000000000e+02 1.094644597386436047e+01
9.710000000000000000e+02 1.164621829288529398e+01
9.720000000000000000e+02 1.435948474175484257e+01
9.730000000000000000e+02 1.897236202240199887e+01
9.740000000000000000e+02 2.091230506533928946e+01
9.750000000000000000e+02 2.755751306782834220e+01
9.760000000000000000e+02 3.405174766901704686e+01
9.770000000000000000e+02 3.880885999585153456e+01
9.780000000000000000e+02 4.024605260112010541e+01
9.790000000000000000e+02 4.276563274160103845e+01
9.800000000000000000e+02 4.714406556938401138e+01
9.810000000000000000e+02 5.031075894005393678e+01
9.820000000000000000e+02 5.296827704894239730e+01
9.830000000000000000e+02 5.917241697573125236e+01
9.840000000000000000e+02 6.752604880522713415e+01
9.850000000000000000e+02 7.802413069680643787e+01
9.860000000000000000e+02 8.848067799834056757e+01
9.870000000000000000e+02 1.043582051897946030e+02
9.880000000000000000e+02 1.138145432482887571e+02
9.890000000000000000e+02 1.160061862684090528e+02
9.900000000000000000e+02 1.234113551960173254e+02
9.910000000000000000e+02 1.429035360920972835e+02
9.920000000000000000e+02 1.744703924704417943e+02
9.930000000000000000e+02 2.241849003111381649e+02
9.940000000000000000e+02 2.882904683260737215e+02
9.950000000000000000e+02 3.633818217589707729e+02
9.960000000000000000e+02 4.294724922837576742e+02
9.970000000000000000e+02 4.868930521468575421e+02
9.980000000000000000e+02 5.466538840489520226e+02
9.990000000000000000e+02 6.169086214685735285e+02
1.000000000000000000e+03 7.071134943165315008e+02
1.001000000000000000e+03 8.244773545643222405e+02
1.002000000000000000e+03 9.687069792960667201e+02
1.003000000000000000e+03 1.125220912863065905e+03
1.004000000000000000e+03 1.290754962655606732e+03
1.005000000000000000e+03 1.458669497925307951e+03
1.006000000000000000e+03 1.524246536231883965e+03
1.007000000000000000e+03 1.370565296680495294e+03
1.008000000000000000e+03 1.049536742116180676e+03
1.009000000000000000e+03 7.614417670124443021e+02
1.010000000000000000e+03 5.731137309128636161e+02
1.011000000000000000e+03 4.627505369294563593e+02
1.012000000000000000e+03 3.890778265560170439e+02
1.013000000000000000e+03 3.342780556016570586e+02
1.014000000000000000e+03 2.862953999999999724e+02
1.015000000000000000e+03 2.426512311203331365e+02
1.016000000000000000e+03 2.057174151452272497e+02
1.017000000000000000e+03 1.741614906639011338e+02
1.018000000000000000e+03 1.449875817427384845e+02
1.019000000000000000e+03 1.234780253112031545e+02
1.020000000000000000e+03 1.038089765975100676e+02
1.021000000000000000e+03 8.972298331950189265e+01
1.022000000000000000e+03 7.746152975103781557e+01
1.023000000000000000e+03 6.598731020746838283e+01
1.024000000000000000e+03 5.713267309128636384e+01
1.025000000000000000e+03 5.126066360995824311e+01
1.026000000000000000e+03 4.549511454356908757e+01
1.027000000000000000e+03 3.827286378882006090e+01
1.028000000000000000e+03 3.575325734439822867e+01
1.029000000000000000e+03 3.161153800829840677e+01
1.030000000000000000e+03 2.586404506224102562e+01
1.031000000000000000e+03 2.226022014522819603e+01
1.032000000000000000e+03 1.923304470954334278e+01
1.033000000000000000e+03 1.658383423236536558e+01
1.034000000000000000e+03 1.232476116182602155e+01
1.035000000000000000e+03 7.159676217391249153e+00
1.036000000000000000e+03 5.875998692946142299e+00
1.037000000000000000e+03 3.283370883817487762e+00
1.038000000000000000e+03 4.255058522821576261e+00
1.039000000000000000e+03 3.563301221442802813e-01
1.040000000000000000e+03 2.667750074688608031e+00
1.041000000000000000e+03 6.223838605809077329e+00
1.042000000000000000e+03 6.668511211618186607e+00
1.043000000000000000e+03 6.347089910973236826e+00
1.044000000000000000e+03 8.239350879668005945e+00
1.045000000000000000e+03 8.468522618257241064e+00
1.046000000000000000e+03 7.390600406639009634e+00
1.047000000000000000e+03 7.943585460580897539e+00
1.048000000000000000e+03 7.538254178423240859e+00
1.049000000000000000e+03 7.393275373443972676e+00
1.050000000000000000e+03 5.835178157676439881e+00
1.051000000000000000e+03 4.158928802904624078e+00
1.052000000000000000e+03 1.882813568464639653e+00
1.053000000000000000e+03 3.904413112033298106e-01
1.054000000000000000e+03 3.747518049793299721e-01
1.055000000000000000e+03 5.184451213250488522e+00
1.056000000000000000e+03 7.413926244813556110e+00
1.057000000000000000e+03 1.183728360995815798e+01
1.058000000000000000e+03 1.485336153526955272e+01
1.059000000000000000e+03 2.019729672199183668e+01
1.060000000000000000e+03 2.630524381742745277e+01
1.061000000000000000e+03 3.137861539419059298e+01
1.062000000000000000e+03 3.650171738589210690e+01
1.063000000000000000e+03 4.348561854771832458e+01
1.064000000000000000e+03 5.073360037267067213e+01
1.065000000000000000e+03 5.505443047717831462e+01
1.066000000000000000e+03 6.114850251037363904e+01
1.067000000000000000e+03 6.397776062240693307e+01
1.068000000000000000e+03 7.341453792531083877e+01
1.069000000000000000e+03 7.936803315352702271e+01
1.070000000000000000e+03 8.192950319502095624e+01
1.071000000000000000e+03 8.644177460580847594e+01
1.072000000000000000e+03 9.364216304347806386e+01
1.073000000000000000e+03 1.012243641078842131e+02
1.074000000000000000e+03 1.077648410788382023e+02
1.075000000000000000e+03 1.130973058091281587e+02
1.076000000000000000e+03 1.247050753112033732e+02
1.077000000000000000e+03 1.357409746887977064e+02
1.078000000000000000e+03 1.496910800829863604e+02
1.079000000000000000e+03 1.648811813278005616e+02
1.080000000000000000e+03 1.862325788819891557e+02
1.081000000000000000e+03 2.113306437759312928e+02
1.082000000000000000e+03 2.391140811203306384e+02
1.083000000000000000e+03 2.737464836099592844e+02
1.084000000000000000e+03 3.177305310559027021e+02
1.085000000000000000e+03 3.709163033194984678e+02
1.086000000000000000e+03 4.313998676348545587e+02
1.087000000000000000e+03 5.024549004149421876e+02
1.088000000000000000e+03 5.837151618257266819e+02
1.089000000000000000e+03 6.827140417012420812e+02
1.090000000000000000e+03 7.884847284232401989e+02
1.091000000000000000e+03 9.047001863070659056e+02
1.092000000000000000e+03 1.028370592738580399e+03
1.093000000000000000e+03 1.153406887966806607e+03
1.094000000000000000e+03 1.288995481327810921e+03
1.095000000000000000e+03 1.428060879668036478e+03
1.096000000000000000e+03 1.566992101449270876e+03
1.097000000000000000e+03 1.702432966804985426e+03
1.098000000000000000e+03 1.822648251037350065e+03
1.099000000000000000e+03 1.901570821576760864e+03
1.100000000000000000e+03 1.931044157676348505e+03
1.101000000000000000e+03 1.896913583850926216e+03
1.102000000000000000e+03 1.788308589211629851e+03
1.103000000000000000e+03 1.617433435684650931e+03
1.104000000000000000e+03 1.414019082987543015e+03
1.105000000000000000e+03 1.204730521739140841e+03
1.106000000000000000e+03 1.013738089211625834e+03
1.107000000000000000e+03 8.506986856846443743e+02
1.108000000000000000e+03 7.112583437759232083e+02
1.109000000000000000e+03 5.972778755186783428e+02
1.110000000000000000e+03 5.082071315352699230e+02
1.111000000000000000e+03 4.391675298755152994e+02
1.112000000000000000e+03 3.822694858921132663e+02
1.113000000000000000e+03 3.358832256728794619e+02
1.114000000000000000e+03 2.976165672199156234e+02
1.115000000000000000e+03 2.604608825726112968e+02
1.116000000000000000e+03 2.349835346473046229e+02
1.117000000000000000e+03 2.118744875518675030e+02
1.118000000000000000e+03 1.921477854771771376e+02
1.119000000000000000e+03 1.794568282157681551e+02
1.120000000000000000e+03 1.651513784232370767e+02
1.121000000000000000e+03 1.498237510373440102e+02
1.122000000000000000e+03 1.401164576763479204e+02
1.123000000000000000e+03 1.313024219917019764e+02
1.124000000000000000e+03 1.214241109958506257e+02
1.125000000000000000e+03 1.184687944099373311e+02
1.126000000000000000e+03 1.109717008298759282e+02
1.127000000000000000e+03 1.072734589211618896e+02
1.128000000000000000e+03 1.045812502074687842e+02
1.129000000000000000e+03 1.025812298755187015e+02
1.130000000000000000e+03 1.017919809128630817e+02
1.131000000000000000e+03 1.011484149377593269e+02
1.132000000000000000e+03 1.016270553941909611e+02
1.133000000000000000e+03 1.044172962655598695e+02
1.134000000000000000e+03 1.114724738589211199e+02
1.135000000000000000e+03 1.214241966804984258e+02
1.136000000000000000e+03 1.310098647302887969e+02
1.137000000000000000e+03 1.469897900414928529e+02
1.138000000000000000e+03 1.652356620331955526e+02
1.139000000000000000e+03 1.821843580912869811e+02
1.140000000000000000e+03 2.070052607883796441e+02
1.141000000000000000e+03 2.371480406638999909e+02
1.142000000000000000e+03 2.655587490683246301e+02
1.143000000000000000e+03 2.980291904564280117e+02
1.144000000000000000e+03 3.306004377593350796e+02
1.145000000000000000e+03 3.644698551867229526e+02
1.146000000000000000e+03 4.044246751552765318e+02
1.147000000000000000e+03 4.411306217842302999e+02
1.148000000000000000e+03 4.752065941908714422e+02
1.149000000000000000e+03 5.072100674273875711e+02
1.150000000000000000e+03 5.319599356846458704e+02
1.151000000000000000e+03 5.449267535269707423e+02
1.152000000000000000e+03 5.489960443983402456e+02
1.153000000000000000e+03 5.416824514522817253e+02
1.154000000000000000e+03 5.200125068322998914e+02
1.155000000000000000e+03 4.891545599585056721e+02
1.156000000000000000e+03 4.525243024896232669e+02
1.157000000000000000e+03 4.121098130705428275e+02
1.158000000000000000e+03 3.735841126556028371e+02
1.159000000000000000e+03 3.325375746887944501e+02
1.160000000000000000e+03 2.925173809128659173e+02
1.161000000000000000e+03 2.560594846473046573e+02
1.162000000000000000e+03 2.277776659751035027e+02
1.163000000000000000e+03 2.033718132780063854e+02
1.164000000000000000e+03 1.796185948132796568e+02
1.165000000000000000e+03 1.595931719917014959e+02
1.166000000000000000e+03 1.402526257261401383e+02
1.167000000000000000e+03 1.224559373443997572e+02
1.168000000000000000e+03 1.096332020746891942e+02
1.169000000000000000e+03 9.937996556016572924e+01
1.170000000000000000e+03 8.953970751037265075e+01
1.171000000000000000e+03 7.987855751552864092e+01
1.172000000000000000e+03 6.980291203319501392e+01
1.173000000000000000e+03 6.319739522821537747e+01
1.174000000000000000e+03 5.338369394190950601e+01
1.175000000000000000e+03 4.584986753623203271e+01
1.176000000000000000e+03 4.155576692946043238e+01
1.177000000000000000e+03 3.744699622406601236e+01
1.178000000000000000e+03 3.152451701244856253e+01
1.179000000000000000e+03 2.766695454356847250e+01
1.180000000000000000e+03 2.598278508298715650e+01
1.181000000000000000e+03 2.121282085062276224e+01
1.182000000000000000e+03 1.821266549792535372e+01
1.183000000000000000e+03 1.675822463768105308e+01
1.184000000000000000e+03 1.312383033195027870e+01
1.185000000000000000e+03 1.185826829875521504e+01
1.186000000000000000e+03 1.156458211618256904e+01
1.187000000000000000e+03 9.072846596273008046e+00
1.188000000000000000e+03 6.837731419087258011e+00
1.189000000000000000e+03 5.121971159751064206e+00
1.190000000000000000e+03 3.812873605809089295e+00
1.191000000000000000e+03 2.792129767634961901e+00
1.192000000000000000e+03 2.137792709543546277e+00
1.193000000000000000e+03 2.014635058091257314e+00
1.194000000000000000e+03 9.054688630707301567e-01
1.195000000000000000e+03 3.828739269709485971e+00
1.196000000000000000e+03 2.738285000000000302e+00
1.197000000000000000e+03 9.571354958506367305e-01
1.198000000000000000e+03 4.320482661825616688e+00
1.199000000000000000e+03 4.428417261410863226e+00
1.200000000000000000e+03 4.793958751037392219e+00
1.201000000000000000e+03 4.401578568464580954e+00
1.202000000000000000e+03 2.874126045643261129e+00
1.203000000000000000e+03 3.243802619047603031e+00
1.204000000000000000e+03 3.437637425310951400e+00
1.205000000000000000e+03 1.648475844398067602e+00
1.206000000000000000e+03 3.398253780083017705e+00
1.207000000000000000e+03 2.695601952282198344e+00
1.208000000000000000e+03 4.092662962655600367e+00
1.209000000000000000e+03 2.832568443983501272e+00
1.210000000000000000e+03 1.081797037344395473e+00
1.211000000000000000e+03 2.745669414937900843e+00
1.212000000000000000e+03 8.583489730849316324e-01
1.213000000000000000e+03 3.238237842323605231e-01
1.214000000000000000e+03 1.653598248962729667e+00
1.215000000000000000e+03 7.399778132777607986e-01
1.216000000000000000e+03 2.820935900621346359e-01
1.217000000000000000e+03 4.940940829876357965e-01
1.218000000000000000e+03 3.091100452282073974e+00
1.219000000000000000e+03 2.386471813277982967e+00
1.220000000000000000e+03 2.919531829875518181e+00
1.221000000000000000e+03 3.535128047717885469e+00
1.222000000000000000e+03 4.311990651452298096e+00
1.223000000000000000e+03 4.723289512448197947e+00
1.224000000000000000e+03 1.026765804979209440e+00
1.225000000000000000e+03 7.714119751039397732e-01
1.226000000000000000e+03 2.086418253112002574e+00
1.227000000000000000e+03 7.055366058091536718e-01
1.228000000000000000e+03 8.633668426502446591e-01
1.229000000000000000e+03 2.670896794605721603e+00
1.230000000000000000e+03 1.684664064315459120e+00
1.231000000000000000e+03 3.661841659751069455e-01
1.232000000000000000e+03 8.932016521738949111e-01
1.233000000000000000e+03 5.426022282157347831e-01
1.234000000000000000e+03 8.565650912863009836e-01
1.235000000000000000e+03 8.133981244813994760e-01
1.236000000000000000e+03 7.657940539418842674e-01
1.237000000000000000e+03 1.272613804979222385e+00
1.238000000000000000e+03 6.963413983403037300e-01
1.239000000000000000e+03 2.815478539419794757e+00
1.240000000000000000e+03 3.361678448132994212e+00
1.241000000000000000e+03 9.585559004149090123e-01
1.242000000000000000e+03 3.552148423236192176e-01
1.243000000000000000e+03 2.675876721991733986e-01
1.244000000000000000e+03 1.610505124223509110e+00
1.245000000000000000e+03 4.808419522821602676e+00
1.246000000000000000e+03 5.096029740663955643e+00
1.247000000000000000e+03 6.011060834024843480e+00
1.248000000000000000e+03 6.710984960580903547e+00
1.249000000000000000e+03 5.506449402489639766e+00
1.250000000000000000e+03 7.894962261410594984e+00
1.251000000000000000e+03 8.583057950207471976e+00
1.252000000000000000e+03 8.487716692946071007e+00
1.253000000000000000e+03 9.784848650103457501e+00
1.254000000000000000e+03 9.175313344398425386e+00
1.255000000000000000e+03 1.036781245228226922e+01
1.256000000000000000e+03 1.370001425311226484e+01
1.257000000000000000e+03 1.325447261410803179e+01
1.258000000000000000e+03 1.195032385892117510e+01
1.259000000000000000e+03 1.417531688796680989e+01
1.260000000000000000e+03 1.385740804979263352e+01
1.261000000000000000e+03 1.353899658385085836e+01
1.262000000000000000e+03 1.616184242738597021e+01
1.263000000000000000e+03 1.657603821576763536e+01
1.264000000000000000e+03 1.657758881742738311e+01
1.265000000000000000e+03 1.556079350622407276e+01
1.266000000000000000e+03 1.627538070539429782e+01
1.267000000000000000e+03 1.413606195020781975e+01
1.268000000000000000e+03 1.433573933609951112e+01
1.269000000000000000e+03 1.455866082987546761e+01
1.270000000000000000e+03 1.285504842323669195e+01
1.271000000000000000e+03 1.343483927385874210e+01
1.272000000000000000e+03 1.418996246887960666e+01
1.273000000000000000e+03 1.045889175983440111e+01
1.274000000000000000e+03 1.190090921161825577e+01
1.275000000000000000e+03 1.103123286307056361e+01
1.276000000000000000e+03 8.777265087136894905e+00
1.277000000000000000e+03 9.114291809128628685e+00
1.278000000000000000e+03 8.794068334024924383e+00
1.279000000000000000e+03 7.562825234439817024e+00
1.280000000000000000e+03 8.834579782157847561e+00
1.281000000000000000e+03 7.768036163900616131e+00
1.282000000000000000e+03 6.793361771784232062e+00
1.283000000000000000e+03 4.737901253111792776e+00
1.284000000000000000e+03 5.463876091285865044e+00
1.285000000000000000e+03 7.679922709543628656e+00
1.286000000000000000e+03 6.312094273858875226e+00
1.287000000000000000e+03 5.333165798755151066e+00
1.288000000000000000e+03 4.596548053941958756e+00
1.289000000000000000e+03 4.721162435684635561e+00
1.290000000000000000e+03 6.665787389233956972e+00
1.291000000000000000e+03 4.795427875518902816e+00
1.292000000000000000e+03 2.390234497925345369e+00
1.293000000000000000e+03 2.931635174273886424e+00
1.294000000000000000e+03 1.527759931677136862e+00
1.295000000000000000e+03 1.960314867219850044e+00
1.296000000000000000e+03 2.624978929460584531e+00
1.297000000000000000e+03 1.648761016597403373e+00
1.298000000000000000e+03 6.832768340249254502e-01
1.299000000000000000e+03 5.863258838174251197e-01
1.300000000000000000e+03 3.287014107883492464e-01
1.301000000000000000e+03 2.409455684647572871e-01
1.302000000000000000e+03 0.000000000000000000e+00
1.303000000000000000e+03 0.000000000000000000e+00
1.304000000000000000e+03 0.000000000000000000e+00
1.305000000000000000e+03 0.000000000000000000e+00
1.306000000000000000e+03 0.000000000000000000e+00
1.307000000000000000e+03 0.000000000000000000e+00
1.308000000000000000e+03 0.000000000000000000e+00
1.309000000000000000e+03 0.000000000000000000e+00
1.310000000000000000e+03 0.000000000000000000e+00
1.311000000000000000e+03 0.000000000000000000e+00
1.312000000000000000e+03 0.000000000000000000e+00
1.313000000000000000e+03 0.000000000000000000e+00
1.314000000000000000e+03 0.000000000000000000e+00
1.315000000000000000e+03 0.000000000000000000e+00
1.316000000000000000e+03 0.000000000000000000e+00
1.317000000000000000e+03 0.000000000000000000e+00
1.318000000000000000e+03 0.000000000000000000e+00
1.319000000000000000e+03 0.000000000000000000e+00
1.320000000000000000e+03 0.000000000000000000e+00
1.321000000000000000e+03 0.000000000000000000e+00
1.322000000000000000e+03 0.000000000000000000e+00
1.323000000000000000e+03 0.000000000000000000e+00
1.324000000000000000e+03 0.000000000000000000e+00
1.325000000000000000e+03 0.000000000000000000e+00
1.326000000000000000e+03 0.000000000000000000e+00
1.327000000000000000e+03 0.000000000000000000e+00
1.328000000000000000e+03 0.000000000000000000e+00
1.329000000000000000e+03 0.000000000000000000e+00
1.330000000000000000e+03 0.000000000000000000e+00
1.331000000000000000e+03 0.000000000000000000e+00
1.332000000000000000e+03 0.000000000000000000e+00
1.333000000000000000e+03 0.000000000000000000e+00
1.334000000000000000e+03 0.000000000000000000e+00
1.335000000000000000e+03 0.000000000000000000e+00
1.336000000000000000e+03 0.000000000000000000e+00
1.337000000000000000e+03 0.000000000000000000e+00
1.338000000000000000e+03 0.000000000000000000e+00
1.339000000000000000e+03 0.000000000000000000e+00
1.340000000000000000e+03 0.000000000000000000e+00
1.341000000000000000e+03 0.000000000000000000e+00
1.342000000000000000e+03 0.000000000000000000e+00
1.343000000000000000e+03 0.000000000000000000e+00
1.344000000000000000e+03 0.000000000000000000e+00
1.345000000000000000e+03 0.000000000000000000e+00
1.346000000000000000e+03 0.000000000000000000e+00
1.347000000000000000e+03 0.000000000000000000e+00
1.348000000000000000e+03 0.000000000000000000e+00
1.349000000000000000e+03 0.000000000000000000e+00
1.350000000000000000e+03 0.000000000000000000e+00
1.351000000000000000e+03 0.000000000000000000e+00
1.352000000000000000e+03 0.000000000000000000e+00
1.353000000000000000e+03 0.000000000000000000e+00
1.354000000000000000e+03 0.000000000000000000e+00
1.355000000000000000e+03 0.000000000000000000e+00
1.356000000000000000e+03 0.000000000000000000e+00
1.357000000000000000e+03 0.000000000000000000e+00
1.358000000000000000e+03 0.000000000000000000e+00
1.359000000000000000e+03 0.000000000000000000e+00
1.360000000000000000e+03 0.000000000000000000e+00
1.361000000000000000e+03 0.000000000000000000e+00
1.362000000000000000e+03 0.000000000000000000e+00
1.363000000000000000e+03 0.000000000000000000e+00
1.364000000000000000e+03 0.000000000000000000e+00
1.365000000000000000e+03 0.000000000000000000e+00
1.366000000000000000e+03 0.000000000000000000e+00
1.367000000000000000e+03 0.000000000000000000e+00
1.368000000000000000e+03 0.000000000000000000e+00
1.369000000000000000e+03 0.000000000000000000e+00
1.370000000000000000e+03 0.000000000000000000e+00
1.371000000000000000e+03 0.000000000000000000e+00
1.372000000000000000e+03 0.000000000000000000e+00
1.373000000000000000e+03 0.000000000000000000e+00
1.374000000000000000e+03 0.000000000000000000e+00
1.375000000000000000e+03 0.000000000000000000e+00
1.376000000000000000e+03 0.000000000000000000e+00
1.377000000000000000e+03 0.000000000000000000e+00
1.378000000000000000e+03 0.000000000000000000e+00
1.379000000000000000e+03 0.000000000000000000e+00
1.380000000000000000e+03 0.000000000000000000e+00
1.381000000000000000e+03 0.000000000000000000e+00
1.382000000000000000e+03 0.000000000000000000e+00
1.383000000000000000e+03 0.000000000000000000e+00
1.384000000000000000e+03 0.000000000000000000e+00
1.385000000000000000e+03 0.000000000000000000e+00
1.386000000000000000e+03 0.000000000000000000e+00
1.387000000000000000e+03 0.000000000000000000e+00
1.388000000000000000e+03 0.000000000000000000e+00
1.389000000000000000e+03 0.000000000000000000e+00
1.390000000000000000e+03 0.000000000000000000e+00
1.391000000000000000e+03 0.000000000000000000e+00
1.392000000000000000e+03 0.000000000000000000e+00
1.393000000000000000e+03 0.000000000000000000e+00
1.394000000000000000e+03 0.000000000000000000e+00
1.395000000000000000e+03 0.000000000000000000e+00
1.396000000000000000e+03 0.000000000000000000e+00
1.397000000000000000e+03 0.000000000000000000e+00
1.398000000000000000e+03 0.000000000000000000e+00
1.399000000000000000e+03 0.000000000000000000e+00
1.400000000000000000e+03 0.000000000000000000e+00
1.401000000000000000e+03 0.000000000000000000e+00
1.402000000000000000e+03 0.000000000000000000e+00
1.403000000000000000e+03 0.000000000000000000e+00
1.404000000000000000e+03 0.000000000000000000e+00
1.405000000000000000e+03 0.000000000000000000e+00
1.406000000000000000e+03 0.000000000000000000e+00
1.407000000000000000e+03 0.000000000000000000e+00
1.408000000000000000e+03 0.000000000000000000e+00
1.409000000000000000e+03 0.000000000000000000e+00
1.410000000000000000e+03 0.000000000000000000e+00
1.411000000000000000e+03 0.000000000000000000e+00
1.412000000000000000e+03 0.000000000000000000e+00
1.413000000000000000e+03 0.000000000000000000e+00
1.414000000000000000e+03 0.000000000000000000e+00
1.415000000000000000e+03 0.000000000000000000e+00
1.416000000000000000e+03 0.000000000000000000e+00
1.417000000000000000e+03 0.000000000000000000e+00
1.418000000000000000e+03 0.000000000000000000e+00
1.419000000000000000e+03 0.000000000000000000e+00
1.420000000000000000e+03 0.000000000000000000e+00
1.421000000000000000e+03 0.000000000000000000e+00
1.422000000000000000e+03 0.000000000000000000e+00
1.423000000000000000e+03 0.000000000000000000e+00
1.424000000000000000e+03 0.000000000000000000e+00
1.425000000000000000e+03 0.000000000000000000e+00
1.426000000000000000e+03 0.000000000000000000e+00
1.427000000000000000e+03 0.000000000000000000e+00
1.428000000000000000e+03 0.000000000000000000e+00
1.429000000000000000e+03 0.000000000000000000e+00
1.430000000000000000e+03 0.000000000000000000e+00
1.431000000000000000e+03 0.000000000000000000e+00
1.432000000000000000e+03 0.000000000000000000e+00
1.433000000000000000e+03 0.000000000000000000e+00
1.434000000000000000e+03 0.000000000000000000e+00
1.435000000000000000e+03 0.000000000000000000e+00
1.436000000000000000e+03 0.000000000000000000e+00
1.437000000000000000e+03 0.000000000000000000e+00
1.438000000000000000e+03 0.000000000000000000e+00
1.439000000000000000e+03 0.000000000000000000e+00
1.440000000000000000e+03 0.000000000000000000e+00
1.441000000000000000e+03 0.000000000000000000e+00
1.442000000000000000e+03 0.000000000000000000e+00
1.443000000000000000e+03 0.000000000000000000e+00
1.444000000000000000e+03 0.000000000000000000e+00
1.445000000000000000e+03 0.000000000000000000e+00
1.446000000000000000e+03 0.000000000000000000e+00
1.447000000000000000e+03 0.000000000000000000e+00
1.448000000000000000e+03 0.000000000000000000e+00
1.449000000000000000e+03 0.000000000000000000e+00
1.450000000000000000e+03 0.000000000000000000e+00
1.451000000000000000e+03 0.000000000000000000e+00
1.452000000000000000e+03 0.000000000000000000e+00
1.453000000000000000e+03 0.000000000000000000e+00
1.454000000000000000e+03 0.000000000000000000e+00
1.455000000000000000e+03 0.000000000000000000e+00
1.456000000000000000e+03 0.000000000000000000e+00
1.457000000000000000e+03 0.000000000000000000e+00
1.458000000000000000e+03 0.000000000000000000e+00
1.459000000000000000e+03 0.000000000000000000e+00
1.460000000000000000e+03 0.000000000000000000e+00
1.461000000000000000e+03 0.000000000000000000e+00
1.462000000000000000e+03 0.000000000000000000e+00
1.463000000000000000e+03 0.000000000000000000e+00
1.464000000000000000e+03 0.000000000000000000e+00
1.465000000000000000e+03 0.000000000000000000e+00
1.466000000000000000e+03 0.000000000000000000e+00
1.467000000000000000e+03 0.000000000000000000e+00
1.468000000000000000e+03 0.000000000000000000e+00
1.469000000000000000e+03 0.000000000000000000e+00
1.470000000000000000e+03 0.000000000000000000e+00
1.471000000000000000e+03 0.000000000000000000e+00
1.472000000000000000e+03 0.000000000000000000e+00
1.473000000000000000e+03 0.000000000000000000e+00
1.474000000000000000e+03 0.000000000000000000e+00
1.475000000000000000e+03 0.000000000000000000e+00
1.476000000000000000e+03 0.000000000000000000e+00
1.477000000000000000e+03 0.000000000000000000e+00
1.478000000000000000e+03 0.000000000000000000e+00
1.479000000000000000e+03 0.000000000000000000e+00
1.480000000000000000e+03 0.000000000000000000e+00
1.481000000000000000e+03 0.000000000000000000e+00
1.482000000000000000e+03 0.000000000000000000e+00
1.483000000000000000e+03 0.000000000000000000e+00
1.484000000000000000e+03 0.000000000000000000e+00
1.485000000000000000e+03 0.000000000000000000e+00
1.486000000000000000e+03 0.000000000000000000e+00
1.487000000000000000e+03 0.000000000000000000e+00
1.488000000000000000e+03 0.000000000000000000e+00
1.489000000000000000e+03 0.000000000000000000e+00
1.490000000000000000e+03 0.000000000000000000e+00
1.491000000000000000e+03 0.000000000000000000e+00
1.492000000000000000e+03 0.000000000000000000e+00
1.493000000000000000e+03 0.000000000000000000e+00
1.494000000000000000e+03 0.000000000000000000e+00
1.495000000000000000e+03 0.000000000000000000e+00
1.496000000000000000e+03 0.000000000000000000e+00
1.497000000000000000e+03 0.000000000000000000e+00
1.498000000000000000e+03 0.000000000000000000e+00
1.499000000000000000e+03 0.000000000000000000e+00
1.500000000000000000e+03 0.000000000000000000e+00
