1.010000000000000000e+02 0.000000000000000000e+00
1.020000000000000000e+02 0.000000000000000000e+00
1.030000000000000000e+02 0.000000000000000000e+00
1.040000000000000000e+02 0.000000000000000000e+00
1.050000000000000000e+02 0.000000000000000000e+00
1.060000000000000000e+02 0.000000000000000000e+00
1.070000000000000000e+02 0.000000000000000000e+00
1.080000000000000000e+02 0.000000000000000000e+00
1.090000000000000000e+02 0.000000000000000000e+00
1.100000000000000000e+02 0.000000000000000000e+00
1.110000000000000000e+02 0.000000000000000000e+00
1.120000000000000000e+02 0.000000000000000000e+00
1.130000000000000000e+02 0.000000000000000000e+00
1.140000000000000000e+02 0.000000000000000000e+00
1.150000000000000000e+02 0.000000000000000000e+00
1.160000000000000000e+02 0.000000000000000000e+00
1.170000000000000000e+02 0.000000000000000000e+00
1.180000000000000000e+02 0.000000000000000000e+00
1.190000000000000000e+02 0.000000000000000000e+00
1.200000000000000000e+02 0.000000000000000000e+00
1.210000000000000000e+02 0.000000000000000000e+00
1.220000000000000000e+02 0.000000000000000000e+00
1.230000000000000000e+02 0.000000000000000000e+00
1.240000000000000000e+02 0.000000000000000000e+00
1.250000000000000000e+02 0.000000000000000000e+00
1.260000000000000000e+02 0.000000000000000000e+00
1.270000000000000000e+02 0.000000000000000000e+00
1.280000000000000000e+02 0.000000000000000000e+00
1.290000000000000000e+02 0.000000000000000000e+00
1.300000000000000000e+02 0.000000000000000000e+00
1.310000000000000000e+02 0.000000000000000000e+00
1.320000000000000000e+02 0.000000000000000000e+00
1.330000000000000000e+02 0.000000000000000000e+00
1.340000000000000000e+02 6.329291078614319721e-01
1.350000000000000000e+02 1.059797927504693504e+01
1.360000000000000000e+02 2.614263252592289533e+01
1.370000000000000000e+02 3.483965246629327339e+01
1.380000000000000000e+02 5.415176634515643173e+01
1.390000000000000000e+02 7.724233492534239076e+01
1.400000000000000000e+02 1.040609588985689413e+02
1.410000000000000000e+02 1.258893843600912561e+02
1.420000000000000000e+02 1.170550987969299683e+02
1.430000000000000000e+02 1.557240961003937514e+02
1.440000000000000000e+02 1.757387695706283068e+02
1.450000000000000000e+02 1.735203932171748988e+02
1.460000000000000000e+02 2.071253122588673250e+02
1.470000000000000000e+02 2.326366233146647744e+02
1.480000000000000000e+02 2.559840600290398811e+02
1.490000000000000000e+02 2.730893704418170955e+02
1.500000000000000000e+02 2.707792113669363516e+02
1.510000000000000000e+02 2.340209514416100944e+02
1.520000000000000000e+02 1.788855992740090244e+02
1.530000000000000000e+02 1.209973772246417667e+02
1.540000000000000000e+02 7.644879110765405983e+01
1.550000000000000000e+02 7.147010054345572883e+01
1.560000000000000000e+02 7.036350468063047003e+01
1.570000000000000000e+02 6.419708790914739893e+01
1.580000000000000000e+02 4.968126210329802461e+01
1.590000000000000000e+02 2.716043522713138714e+01
1.600000000000000000e+02 3.410495075502991114e+01
1.610000000000000000e+02 3.089056347438270933e+01
1.620000000000000000e+02 1.779838723293921987e+01
1.630000000000000000e+02 1.865983533291847962e+01
1.640000000000000000e+02 1.669815509230454253e+01
1.650000000000000000e+02 2.050125080895869090e+00
1.660000000000000000e+02 2.416853726820110460e+00
1.670000000000000000e+02 1.623009024891100438e+01
1.680000000000000000e+02 1.001574551213442810e+01
1.690000000000000000e+02 1.324755816842991862e+01
1.700000000000000000e+02 2.313397869556207809e+01
1.710000000000000000e+02 2.903020004148517330e+01
1.720000000000000000e+02 2.452436729931553216e+01
1.730000000000000000e+02 1.875126142264621265e+01
1.740000000000000000e+02 1.843970853557356193e+01
1.750000000000000000e+02 2.587698294129851817e+01
1.760000000000000000e+02 3.640983998340934846e+01
1.770000000000000000e+02 2.695648243310533587e+01
1.780000000000000000e+02 2.476455261356570858e+01
1.790000000000000000e+02 2.853400009539610238e+01
1.800000000000000000e+02 2.675753272142709349e+01
1.810000000000000000e+02 2.939672714996889269e+01
1.820000000000000000e+02 2.701990894212814709e+01
1.830000000000000000e+02 2.644462161792161936e+01
1.840000000000000000e+02 3.166997299315494985e+01
1.850000000000000000e+02 3.663547258245169047e+01
1.860000000000000000e+02 5.072269714374605343e+01
1.870000000000000000e+02 5.932482815390998354e+01
1.880000000000000000e+02 6.537332973656917545e+01
1.890000000000000000e+02 8.277688497614596486e+01
1.900000000000000000e+02 7.978693510267588351e+01
1.910000000000000000e+02 8.167853472930933378e+01
1.920000000000000000e+02 9.822974693424608006e+01
1.930000000000000000e+02 1.282729267523847341e+02
1.940000000000000000e+02 1.683176792574150227e+02
1.950000000000000000e+02 1.749549036714375063e+02
1.960000000000000000e+02 1.965963337274426692e+02
1.970000000000000000e+02 2.494276609002281191e+02
1.980000000000000000e+02 2.648865575399294130e+02
1.990000000000000000e+02 2.714282235843186299e+02
2.000000000000000000e+02 2.764505545115121663e+02
2.010000000000000000e+02 2.635882205351586549e+02
2.020000000000000000e+02 2.136488762912262871e+02
2.030000000000000000e+02 1.622723825762287788e+02
2.040000000000000000e+02 1.135912354698190825e+02
2.050000000000000000e+02 6.594232465463592519e+01
2.060000000000000000e+02 2.459030080273817020e+01
2.070000000000000000e+02 1.396461082970342460e+01
2.080000000000000000e+02 1.837910789670193523e+01
2.090000000000000000e+02 1.133413173864334134e+01
2.100000000000000000e+02 3.655344318125269609e+00
2.110000000000000000e+02 5.072057616469512809e+00
2.120000000000000000e+02 1.377172942750473617e+01
2.130000000000000000e+02 1.552844552260471289e+01
2.140000000000000000e+02 1.046694408960797951e+01
2.150000000000000000e+02 2.812173071354516996e+00
2.160000000000000000e+02 5.009998119037755160e+00
2.170000000000000000e+02 8.024750199751100155e+00
2.180000000000000000e+02 2.365702495955200391e+01
2.190000000000000000e+02 4.731258705308989221e+01
2.200000000000000000e+02 5.061380462767056798e+01
2.210000000000000000e+02 6.341439733042954430e+01
2.220000000000000000e+02 7.855025513378969038e+01
2.230000000000000000e+02 8.846616636589919835e+01
2.240000000000000000e+02 9.615765291018429650e+01
2.250000000000000000e+02 1.421952819746944101e+02
2.260000000000000000e+02 1.520583483302218895e+02
2.270000000000000000e+02 1.724213619867273621e+02
2.280000000000000000e+02 2.230340453640322380e+02
2.290000000000000000e+02 2.026381376063057189e+02
2.300000000000000000e+02 2.187479698880134720e+02
2.310000000000000000e+02 2.277793367973449676e+02
2.320000000000000000e+02 2.126174279402614502e+02
2.330000000000000000e+02 1.962178115304851076e+02
2.340000000000000000e+02 1.740331166770377820e+02
2.350000000000000000e+02 1.786862799834059956e+02
2.360000000000000000e+02 1.872729172163452347e+02
2.370000000000000000e+02 1.814653443683880880e+02
2.380000000000000000e+02 2.024401010371293523e+02
2.390000000000000000e+02 1.986109431653183890e+02
2.400000000000000000e+02 2.149545690728062937e+02
2.410000000000000000e+02 2.489671993154946392e+02
2.420000000000000000e+02 2.488118515245800211e+02
2.430000000000000000e+02 2.722054370462561224e+02
2.440000000000000000e+02 2.662231278365484286e+02
2.450000000000000000e+02 2.376537508608174960e+02
2.460000000000000000e+02 2.072534852520220738e+02
2.470000000000000000e+02 1.549832594275042368e+02
2.480000000000000000e+02 1.490961851690520632e+02
2.490000000000000000e+02 1.250190690873265993e+02
2.500000000000000000e+02 7.605868739734569317e+01
2.510000000000000000e+02 5.595653329807082343e+01
2.520000000000000000e+02 4.545437571043350999e+01
2.530000000000000000e+02 4.952458737038569581e+01
2.540000000000000000e+02 4.779507292055613732e+01
2.550000000000000000e+02 2.951587029247031779e+01
2.560000000000000000e+02 2.846478445873081853e+01
2.570000000000000000e+02 2.575513480813110334e+01
2.580000000000000000e+02 1.729936197261988440e+01
2.590000000000000000e+02 1.179946861468270747e+01
2.600000000000000000e+02 2.095254713130060509e+01
2.610000000000000000e+02 2.049791397635345191e+01
2.620000000000000000e+02 3.486389349513016711e+00
2.630000000000000000e+02 1.102837619581002926e+01
2.640000000000000000e+02 2.452046125700061552e+01
2.650000000000000000e+02 1.463232652271334722e+01
2.660000000000000000e+02 1.240249850238622553e+00
2.670000000000000000e+02 1.157842034743901394e+01
2.680000000000000000e+02 3.768404614187910084e+01
2.690000000000000000e+02 3.512554644679560312e+01
2.700000000000000000e+02 1.123623756979868382e+01
2.710000000000000000e+02 5.900343611076429795e+00
2.720000000000000000e+02 3.615045886953112131e+00
2.730000000000000000e+02 4.620382570006263734e+00
2.740000000000000000e+02 1.552549019912877881e+01
2.750000000000000000e+02 2.051806554034433461e+01
2.760000000000000000e+02 9.986709124840951191e-01
2.770000000000000000e+02 2.207359897324203502e+01
2.780000000000000000e+02 1.280336774611073203e+01
2.790000000000000000e+02 9.838596498755739717e+00
2.800000000000000000e+02 9.204951281476656533e+00
2.810000000000000000e+02 9.079684205723741464e-01
2.820000000000000000e+02 4.225090246006928396e+00
2.830000000000000000e+02 1.017841361045447890e+01
2.840000000000000000e+02 2.301019516175858826e+01
2.850000000000000000e+02 2.852882152043144970e+01
2.860000000000000000e+02 2.236217837585588342e+01
2.870000000000000000e+02 1.196751136457905673e+01
2.880000000000000000e+02 1.628983084007460747e+01
2.890000000000000000e+02 1.810917012445541374e+01
2.900000000000000000e+02 3.079874366106627903e+01
2.910000000000000000e+02 4.837428687201825284e+01
2.920000000000000000e+02 4.643201286869957300e+01
2.930000000000000000e+02 2.161101395146215864e+01
2.940000000000000000e+02 3.398016686164725542e+01
2.950000000000000000e+02 4.948720799626631361e+01
2.960000000000000000e+02 4.123826080481235579e+01
2.970000000000000000e+02 5.198979591163675451e+01
2.980000000000000000e+02 4.877154598216128534e+01
2.990000000000000000e+02 6.207451019497960232e+01
3.000000000000000000e+02 8.629453667703843678e+01
3.010000000000000000e+02 9.705116201617937577e+01
3.020000000000000000e+02 1.019740000248910263e+02
3.030000000000000000e+02 1.025216830947935733e+02
3.040000000000000000e+02 1.062631175445870468e+02
3.050000000000000000e+02 1.271522442646749624e+02
3.060000000000000000e+02 1.727518921593026846e+02
3.070000000000000000e+02 1.879565349025299952e+02
3.080000000000000000e+02 2.029347568969093629e+02
3.090000000000000000e+02 2.172978369218004104e+02
3.100000000000000000e+02 2.248728657818332977e+02
3.110000000000000000e+02 2.371256022401992425e+02
3.120000000000000000e+02 2.488082810412777803e+02
3.130000000000000000e+02 2.289348972625459737e+02
3.140000000000000000e+02 2.046573154117401430e+02
3.150000000000000000e+02 2.065473504044803690e+02
3.160000000000000000e+02 1.816870787181091487e+02
3.170000000000000000e+02 1.443741616884454970e+02
3.180000000000000000e+02 1.182445356565025634e+02
3.190000000000000000e+02 1.119327910599458420e+02
3.200000000000000000e+02 1.155838224642195513e+02
3.210000000000000000e+02 7.215084886330659231e+01
3.220000000000000000e+02 6.498891017008904214e+01
3.230000000000000000e+02 7.756435540759173364e+01
3.240000000000000000e+02 7.729640385189800611e+01
3.250000000000000000e+02 7.051035683260734288e+01
3.260000000000000000e+02 4.979703463804201391e+01
3.270000000000000000e+02 3.841903294544703584e+01
3.280000000000000000e+02 3.815227963285626345e+01
3.290000000000000000e+02 3.963223646546359902e+01
3.300000000000000000e+02 3.974178605557860067e+01
3.310000000000000000e+02 1.419295228541748699e+01
3.320000000000000000e+02 1.381401690728029319e+00
3.330000000000000000e+02 4.414649092492725302e+00
3.340000000000000000e+02 1.258976650280027165e+01
3.350000000000000000e+02 5.786243716448792540e+00
3.360000000000000000e+02 1.480199999999999960e+01
3.370000000000000000e+02 2.357685732628088005e+01
3.380000000000000000e+02 1.592269505289394971e+01
3.390000000000000000e+02 2.400770029033593822e+00
3.400000000000000000e+02 4.340710113461813791e+00
3.410000000000000000e+02 2.072798935697953127e+01
3.420000000000000000e+02 2.916902038158440646e+01
3.430000000000000000e+02 2.058257691972623959e+01
3.440000000000000000e+02 1.217277401576433604e+01
3.450000000000000000e+02 1.978832473968060057e+01
3.460000000000000000e+02 1.008361995270678335e+01
3.470000000000000000e+02 7.687001883011823189e+00
3.480000000000000000e+02 3.250435263223257376e+00
3.490000000000000000e+02 1.143174362580395531e+01
3.500000000000000000e+02 2.266933021360423695e+01
3.510000000000000000e+02 2.377713910599457847e+01
3.520000000000000000e+02 2.215956001866842229e+01
3.530000000000000000e+02 2.476924133789675153e+01
3.540000000000000000e+02 5.852073364447644366e+00
3.550000000000000000e+02 5.954330648412968330e+00
3.560000000000000000e+02 1.116066617921592119e+01
3.570000000000000000e+02 1.072673451151207047e+01
3.580000000000000000e+02 1.140187313002935454e+01
3.590000000000000000e+02 1.553353466708156105e+01
3.600000000000000000e+02 1.260209364281276123e+01
3.610000000000000000e+02 2.973147416655333442e-01
3.620000000000000000e+02 2.484049860609931049e+00
3.630000000000000000e+02 1.418663066998552935e+01
3.640000000000000000e+02 1.474180469099951551e+01
3.650000000000000000e+02 4.847406720389813017e+00
3.660000000000000000e+02 6.307401280024850010e+00
3.670000000000000000e+02 2.724820756117767928e+01
3.680000000000000000e+02 1.460544123003491990e+01
3.690000000000000000e+02 6.800270733665373157e+00
3.700000000000000000e+02 2.454801639908365640e+00
3.710000000000000000e+02 1.999546380833871240e+01
3.720000000000000000e+02 1.509165113461914132e+01
3.730000000000000000e+02 2.499902362165527236e+01
3.740000000000000000e+02 7.497089853972417117e+00
3.750000000000000000e+02 1.397475271935212504e+01
3.760000000000000000e+02 3.723998952084629366e+01
3.770000000000000000e+02 2.810471983198509349e+01
3.780000000000000000e+02 1.967684756482059072e+01
3.790000000000000000e+02 3.554201477079475069e+01
3.800000000000000000e+02 5.097791672682021158e+01
3.810000000000000000e+02 5.058834891931133626e+01
3.820000000000000000e+02 4.301765742377089907e+01
3.830000000000000000e+02 4.887710129226316269e+01
3.840000000000000000e+02 6.629455385732073580e+01
3.850000000000000000e+02 7.544181604853770295e+01
3.860000000000000000e+02 7.411811738228590229e+01
3.870000000000000000e+02 7.370572571339680223e+01
3.880000000000000000e+02 5.518744919103951219e+01
3.890000000000000000e+02 5.224381199751071847e+01
3.900000000000000000e+02 5.453116590626292748e+01
3.910000000000000000e+02 5.970792578718089061e+01
3.920000000000000000e+02 7.883068776187491267e+01
3.930000000000000000e+02 6.840625059726258428e+01
3.940000000000000000e+02 8.261591118855004368e+01
3.950000000000000000e+02 1.024381009147479062e+02
3.960000000000000000e+02 1.127299328494402033e+02
3.970000000000000000e+02 1.355598114913918266e+02
3.980000000000000000e+02 1.302479492221530961e+02
3.990000000000000000e+02 1.384148426882393039e+02
4.000000000000000000e+02 1.525711637212197900e+02
4.010000000000000000e+02 1.578594235635760015e+02
4.020000000000000000e+02 1.554486532669570238e+02
4.030000000000000000e+02 1.716015095208467756e+02
4.040000000000000000e+02 1.837001146650073338e+02
4.050000000000000000e+02 1.993791338726400397e+02
4.060000000000000000e+02 2.177853320058078452e+02
4.070000000000000000e+02 2.083007592408214066e+02
4.080000000000000000e+02 2.422831955818290339e+02
4.090000000000000000e+02 2.626055222360504899e+02
4.100000000000000000e+02 2.811935832399910851e+02
4.110000000000000000e+02 3.186720949388093231e+02
4.120000000000000000e+02 3.408469015556937620e+02
4.130000000000000000e+02 3.537347267938613413e+02
4.140000000000000000e+02 3.887071207218422728e+02
4.150000000000000000e+02 4.168092372951669518e+02
4.160000000000000000e+02 4.097334748237244639e+02
4.170000000000000000e+02 3.931592693839451158e+02
4.180000000000000000e+02 4.115158255548644775e+02
4.190000000000000000e+02 4.464031656574030080e+02
4.200000000000000000e+02 4.772982621862690849e+02
4.210000000000000000e+02 4.952918206138530763e+02
4.220000000000000000e+02 4.947011560049782020e+02
4.230000000000000000e+02 5.116945331881347556e+02
4.240000000000000000e+02 5.075592666666667014e+02
4.250000000000000000e+02 5.076704242273384580e+02
4.260000000000000000e+02 5.329509650902298290e+02
4.270000000000000000e+02 5.508794264467952644e+02
4.280000000000000000e+02 5.436325704833021746e+02
4.290000000000000000e+02 5.254567523750260989e+02
4.300000000000000000e+02 5.128724252644678927e+02
4.310000000000000000e+02 5.147338116988178172e+02
4.320000000000000000e+02 5.214465856461314388e+02
4.330000000000000000e+02 4.997576286247660278e+02
4.340000000000000000e+02 5.097114226094176388e+02
4.350000000000000000e+02 5.083609542626007851e+02
4.360000000000000000e+02 4.776996062850033695e+02
4.370000000000000000e+02 4.994517182534749509e+02
4.380000000000000000e+02 4.685731467026124619e+02
4.390000000000000000e+02 4.503399267994193451e+02
4.400000000000000000e+02 4.297618456751720259e+02
4.410000000000000000e+02 3.968835364164249881e+02
4.420000000000000000e+02 3.875737727027588448e+02
4.430000000000000000e+02 3.728820531839869545e+02
4.440000000000000000e+02 3.508762057030278925e+02
4.450000000000000000e+02 3.287171369632856113e+02
4.460000000000000000e+02 3.094730149761461462e+02
4.470000000000000000e+02 2.902508037743673412e+02
4.480000000000000000e+02 2.765135621032979998e+02
4.490000000000000000e+02 2.745968724953329456e+02
4.500000000000000000e+02 2.499622686644536600e+02
4.510000000000000000e+02 2.082263589711676843e+02
4.520000000000000000e+02 1.991102428541793472e+02
4.530000000000000000e+02 1.709239383530392900e+02
4.540000000000000000e+02 1.590307210952082926e+02
4.550000000000000000e+02 1.399922610661681119e+02
4.560000000000000000e+02 1.236080204936732656e+02
4.570000000000000000e+02 1.424009343704623802e+02
4.580000000000000000e+02 1.400439013067830558e+02
4.590000000000000000e+02 1.350573536403236119e+02
4.600000000000000000e+02 1.124012066998552655e+02
4.610000000000000000e+02 9.160245309686790449e+01
4.620000000000000000e+02 9.872323513171541265e+01
4.630000000000000000e+02 8.162082756067214007e+01
4.640000000000000000e+02 8.594074174030271251e+01
4.650000000000000000e+02 8.520130251814963174e+01
4.660000000000000000e+02 7.361092729724119010e+01
4.670000000000000000e+02 5.978434066569874261e+01
4.680000000000000000e+02 3.364331805227127603e+01
4.690000000000000000e+02 6.124235734909813544e+01
4.700000000000000000e+02 6.251667360431378029e+01
4.710000000000000000e+02 4.861042086081725699e+01
4.720000000000000000e+02 5.664744062850027717e+01
4.730000000000000000e+02 4.360276336997105773e+01
4.740000000000000000e+02 1.328658571748666262e+01
4.750000000000000000e+02 7.975029912466045090e+00
4.760000000000000000e+02 2.620421644131059580e+01
4.770000000000000000e+02 4.739960253889211117e+01
4.780000000000000000e+02 5.885882344534329746e+01
4.790000000000000000e+02 5.436828745281059128e+01
4.800000000000000000e+02 3.307227525409673774e+01
4.810000000000000000e+02 2.636826192906022470e+01
4.820000000000000000e+02 3.432061240821392545e+01
4.830000000000000000e+02 2.273485763119682446e+01
4.840000000000000000e+02 2.806953041485169109e+01
4.850000000000000000e+02 3.824898825969729899e+01
4.860000000000000000e+02 2.831850709396350751e+01
4.870000000000000000e+02 4.270708304293542312e+00
4.880000000000000000e+02 5.585627358224442673e+00
4.890000000000000000e+02 1.008031164550960668e+01
4.900000000000000000e+02 3.685899909147187792e+00
4.910000000000000000e+02 1.202995741754798065e+00
4.920000000000000000e+02 8.939510835752674467e+00
4.930000000000000000e+02 8.388422207218519944e+00
4.940000000000000000e+02 1.386283170296615985e+01
4.950000000000000000e+02 5.531305587308221305e+00
4.960000000000000000e+02 1.576114956440576442e+01
4.970000000000000000e+02 1.366622939016807514e+01
4.980000000000000000e+02 5.483567461634224038e+00
4.990000000000000000e+02 3.688688774942824988e+00
5.000000000000000000e+02 2.653516736154343647e+01
5.010000000000000000e+02 3.540409602447106607e+01
5.020000000000000000e+02 2.739330453847728819e+01
5.030000000000000000e+02 1.959993972204927815e+01
5.040000000000000000e+02 1.793307684363332655e+01
5.050000000000000000e+02 2.758418500933409589e+01
5.060000000000000000e+02 2.500099023231669904e+01
5.070000000000000000e+02 1.095237845778909147e+01
5.080000000000000000e+02 6.516648782824749020e+00
5.090000000000000000e+02 1.892875069072843530e+01
5.100000000000000000e+02 5.997781479775884605e+00
5.110000000000000000e+02 8.806472960381768189e+00
5.120000000000000000e+02 6.591029528935624882e+00
5.130000000000000000e+02 7.319419186268726563e+00
5.140000000000000000e+02 1.405301736154350323e+01
5.150000000000000000e+02 2.651383715411760278e+01
5.160000000000000000e+02 2.216179855839030921e+01
5.170000000000000000e+02 9.634037373988771691e+00
5.180000000000000000e+02 6.417274770219829172e+00
5.190000000000000000e+02 5.323008887990055449e+00
5.200000000000000000e+02 1.027855448205758826e+01
5.210000000000000000e+02 9.509925072584040961e+00
5.220000000000000000e+02 1.763470657125076002e+01
5.230000000000000000e+02 1.516965646546358393e+01
5.240000000000000000e+02 8.615172336167518097e+00
5.250000000000000000e+02 9.285705295581667684e-01
5.260000000000000000e+02 9.993569404687798752e-01
5.270000000000000000e+02 1.042859899170474058e+01
5.280000000000000000e+02 1.579202043434992575e+01
5.290000000000000000e+02 2.318366828043988193e+01
5.300000000000000000e+02 1.083193535380401329e+01
5.310000000000000000e+02 9.987713205559025198e+00
5.320000000000000000e+02 1.048180943995019820e+00
5.330000000000000000e+02 1.560388835718740985e+01
5.340000000000000000e+02 1.611564325243732654e+01
5.350000000000000000e+02 2.157174618751194650e+00
5.360000000000000000e+02 1.037072480647169570e+01
5.370000000000000000e+02 1.049432497822026633e+01
5.380000000000000000e+02 1.903006349719956347e+01
5.390000000000000000e+02 2.454917260319435712e+01
5.400000000000000000e+02 1.607181962455940294e+01
5.410000000000000000e+02 4.056205528313615361e+00
5.420000000000000000e+02 9.094721803360307888e+00
5.430000000000000000e+02 2.605424165608734199e+01
5.440000000000000000e+02 2.172581186061044889e+01
5.450000000000000000e+02 1.289519953329174129e+01
5.460000000000000000e+02 2.180460377722473808e+01
5.470000000000000000e+02 1.841870690377389153e+01
5.480000000000000000e+02 4.130454814146461473e+01
5.490000000000000000e+02 4.238994534536397651e+01
5.500000000000000000e+02 4.475656841974257105e+01
5.510000000000000000e+02 6.514924055382643076e+01
5.520000000000000000e+02 7.784425014934721787e+01
5.530000000000000000e+02 3.833473965159731023e+01
5.540000000000000000e+02 5.784831090437590717e+01
5.550000000000000000e+02 5.799345992532730065e+01
5.560000000000000000e+02 6.008756202820363512e+01
5.570000000000000000e+02 8.698697002696476943e+01
5.580000000000000000e+02 9.988389975108869123e+01
5.590000000000000000e+02 9.366967436631402677e+01
5.600000000000000000e+02 9.938551347853110940e+01
5.610000000000000000e+02 1.361404684712706512e+02
5.620000000000000000e+02 1.787619076540138110e+02
5.630000000000000000e+02 1.959685513793819212e+02
5.640000000000000000e+02 2.105777778469199006e+02
5.650000000000000000e+02 2.729383474797778604e+02
5.660000000000000000e+02 3.052041664799835416e+02
5.670000000000000000e+02 3.433867036092113949e+02
5.680000000000000000e+02 4.179124638249301711e+02
5.690000000000000000e+02 4.862157334785290459e+02
5.700000000000000000e+02 5.224142511097297756e+02
5.710000000000000000e+02 5.591647953951448926e+02
5.720000000000000000e+02 6.092830282306546223e+02
5.730000000000000000e+02 6.870101974284485777e+02
5.740000000000000000e+02 7.783877943995007627e+02
5.750000000000000000e+02 8.347144609831976823e+02
5.760000000000000000e+02 8.612775117378678260e+02
5.770000000000000000e+02 8.798376462144783545e+02
5.780000000000000000e+02 8.870386440572494848e+02
5.790000000000000000e+02 8.512246989630849612e+02
5.800000000000000000e+02 7.679792483717059213e+02
5.810000000000000000e+02 7.377441421074462369e+02
5.820000000000000000e+02 7.084483442347587925e+02
5.830000000000000000e+02 7.208575187305552845e+02
5.840000000000000000e+02 7.509008771624153269e+02
5.850000000000000000e+02 7.794227350342235923e+02
5.860000000000000000e+02 8.351649218626843094e+02
5.870000000000000000e+02 8.187447776441294991e+02
5.880000000000000000e+02 7.908257957685140127e+02
5.890000000000000000e+02 7.198205543455744646e+02
5.900000000000000000e+02 6.060750697221096743e+02
5.910000000000000000e+02 4.877979462767066252e+02
5.920000000000000000e+02 3.967041279402619693e+02
5.930000000000000000e+02 3.169348340937366402e+02
5.940000000000000000e+02 2.660691683675580066e+02
5.950000000000000000e+02 1.982544478738837483e+02
5.960000000000000000e+02 1.305868249896296049e+02
5.970000000000000000e+02 1.183584974486618080e+02
5.980000000000000000e+02 1.029271415681399588e+02
5.990000000000000000e+02 1.132383396805637972e+02
6.000000000000000000e+02 1.126874925342176681e+02
6.010000000000000000e+02 1.028370291433315771e+02
6.020000000000000000e+02 9.493957703795908287e+01
6.030000000000000000e+02 9.767723816051372410e+01
6.040000000000000000e+02 1.259277610454261520e+02
6.050000000000000000e+02 1.062980671976772555e+02
6.060000000000000000e+02 1.102400632932393449e+02
6.070000000000000000e+02 1.413211976975732966e+02
6.080000000000000000e+02 1.611931572702761741e+02
6.090000000000000000e+02 1.956406758813778595e+02
6.100000000000000000e+02 1.965654685334993985e+02
6.110000000000000000e+02 2.559169402613593149e+02
6.120000000000000000e+02 3.409528111157239891e+02
6.130000000000000000e+02 4.362583618543930584e+02
6.140000000000000000e+02 5.576580031528770860e+02
6.150000000000000000e+02 6.699830578510635632e+02
6.160000000000000000e+02 8.081836852520167440e+02
6.170000000000000000e+02 9.532754548848836293e+02
6.180000000000000000e+02 1.094205399087323940e+03
6.190000000000000000e+02 1.250347529350754030e+03
6.200000000000000000e+02 1.453152603609205471e+03
6.210000000000000000e+02 1.704189185438707000e+03
6.220000000000000000e+02 1.905135042107447362e+03
6.230000000000000000e+02 2.088642203899606557e+03
6.240000000000000000e+02 2.280804947936118424e+03
6.250000000000000000e+02 2.400132105164905170e+03
6.260000000000000000e+02 2.291089456242217238e+03
6.270000000000000000e+02 1.998094918896481204e+03
6.280000000000000000e+02 1.637662435801690435e+03
6.290000000000000000e+02 1.275905511406047026e+03
6.300000000000000000e+02 9.538320986932075130e+02
6.310000000000000000e+02 7.068856154324782892e+02
6.320000000000000000e+02 5.507322107009506453e+02
6.330000000000000000e+02 4.539020211574382984e+02
6.340000000000000000e+02 3.463654971997488019e+02
6.350000000000000000e+02 2.755232331812516691e+02
6.360000000000000000e+02 2.292096377100187681e+02
6.370000000000000000e+02 1.740094814146444264e+02
6.380000000000000000e+02 1.458168076939025184e+02
6.390000000000000000e+02 1.269168588674545788e+02
6.400000000000000000e+02 1.356783199543663443e+02
6.410000000000000000e+02 1.132555510682416724e+02
6.420000000000000000e+02 8.385603585355762846e+01
6.430000000000000000e+02 9.320567411947718028e+01
6.440000000000000000e+02 7.512908207840648345e+01
6.450000000000000000e+02 5.531133489317547713e+01
6.460000000000000000e+02 4.939405127359468395e+01
6.470000000000000000e+02 3.696908186475784674e+01
6.480000000000000000e+02 2.452469412570006568e+01
6.490000000000000000e+02 3.197707374403650959e+01
6.500000000000000000e+02 3.657536835303877609e+01
6.510000000000000000e+02 2.768901268409053174e+01
6.520000000000000000e+02 3.139774258867451806e+01
6.530000000000000000e+02 4.156435175482272371e+01
6.540000000000000000e+02 4.335985260734285163e+01
6.550000000000000000e+02 3.078063713396938894e+01
6.560000000000000000e+02 9.465453707529539074e+00
6.570000000000000000e+02 2.419270912258865991e+01
6.580000000000000000e+02 1.370649861675657277e+01
6.590000000000000000e+02 3.622487741132559558e-01
6.600000000000000000e+02 1.429421133582227732e+01
6.610000000000000000e+02 3.063455913728742885e+01
6.620000000000000000e+02 5.295400293714995321e+00
6.630000000000000000e+02 2.318316141879246572e+01
6.640000000000000000e+02 1.345829146827037093e+01
6.650000000000000000e+02 5.201120181082732330e+00
6.660000000000000000e+02 4.055585887367819886e+00
6.670000000000000000e+02 3.977686939016805923e+00
6.680000000000000000e+02 6.841563169052128579e+00
6.690000000000000000e+02 1.876059175860630290e+01
6.700000000000000000e+02 1.831719851275671118e+01
6.710000000000000000e+02 5.380190674548920526e+00
6.720000000000000000e+02 1.228109152633754420e+01
6.730000000000000000e+02 1.416474164696123061e+01
6.740000000000000000e+02 6.407919816635740062e+00
6.750000000000000000e+02 1.678075627955187699e+01
6.760000000000000000e+02 8.079348202862730588e+00
6.770000000000000000e+02 9.805440031114146526e-01
6.780000000000000000e+02 6.092219914973012074e+00
6.790000000000000000e+02 6.109634034432698257e+00
6.800000000000000000e+02 5.959369108276121985e+00
6.810000000000000000e+02 1.390104068450527741e+01
6.820000000000000000e+02 1.782121898983631603e+00
6.830000000000000000e+02 3.470327077784692182e+00
6.840000000000000000e+02 2.024992590541369708e+01
6.850000000000000000e+02 1.851511604231435371e+01
6.860000000000000000e+02 5.695170597801607393e+00
6.870000000000000000e+02 6.249615573117671019e+00
6.880000000000000000e+02 7.520576072598938566e+00
6.890000000000000000e+02 4.779135311761320892e+00
6.900000000000000000e+02 1.449472014934588104e+00
6.910000000000000000e+02 3.297734704625560731e+00
6.920000000000000000e+02 3.288990297241263239e+00
6.930000000000000000e+02 1.755300056005641984e-01
6.940000000000000000e+02 7.924423285624920821e-01
6.950000000000000000e+02 9.047015562007243439e-01
6.960000000000000000e+02 7.953069025513233470e+00
6.970000000000000000e+02 2.503281838207846732e+01
6.980000000000000000e+02 9.362140091248411622e+00
6.990000000000000000e+02 1.588174284380883705e+00
7.000000000000000000e+02 2.517574114499114302e+01
7.010000000000000000e+02 2.373152508088018564e+01
7.020000000000000000e+02 6.990174006637926318e+00
7.030000000000000000e+02 1.307932305538344053e+01
7.040000000000000000e+02 3.398783024678516540e+01
7.050000000000000000e+02 1.856871781788085229e+01
7.060000000000000000e+02 4.448611032981293789e+00
7.070000000000000000e+02 8.561002431860295303e+00
7.080000000000000000e+02 1.525133460485379011e+01
7.090000000000000000e+02 1.013721458908983308e+01
7.100000000000000000e+02 5.842200884878407940e+00
7.110000000000000000e+02 3.196350949595500879e+01
7.120000000000000000e+02 3.613396326695713867e+01
7.130000000000000000e+02 2.435344894835079543e+01
7.140000000000000000e+02 7.967440041484965541e+00
7.150000000000000000e+02 1.154630158182974320e+01
7.160000000000000000e+02 3.450906937564840149e+01
7.170000000000000000e+02 2.271159153080239435e+01
7.180000000000000000e+02 2.545576829910828920e+01
7.190000000000000000e+02 2.972752878241014329e+01
7.200000000000000000e+02 2.953016439742784982e+01
7.210000000000000000e+02 2.446116216922400355e+01
7.220000000000000000e+02 2.201920448039740563e+01
7.230000000000000000e+02 3.664999245592228760e+01
7.240000000000000000e+02 2.362662423890520103e+01
7.250000000000000000e+02 2.910662941505891865e+01
7.260000000000000000e+02 3.589328043559425652e+01
7.270000000000000000e+02 2.980425867067615542e+01
7.280000000000000000e+02 1.764352818294954517e+01
7.290000000000000000e+02 1.840276327525414501e+01
7.300000000000000000e+02 4.769456822480343305e+01
7.310000000000000000e+02 3.157815616676970194e+01
7.320000000000000000e+02 1.947719577473543495e+01
7.330000000000000000e+02 1.398757690999555336e+01
7.340000000000000000e+02 6.320187636382090801e+00
7.350000000000000000e+02 4.093717716241757065e-01
7.360000000000000000e+02 4.814892834472844996e+00
7.370000000000000000e+02 3.531028853764825470e+01
7.380000000000000000e+02 1.751585062214732957e+01
7.390000000000000000e+02 1.164334298278325619e+01
7.400000000000000000e+02 2.193894430526752615e+01
7.410000000000000000e+02 2.190378596141879086e+01
7.420000000000000000e+02 2.215403449491806498e+01
7.430000000000000000e+02 2.297341231854010246e+01
7.440000000000000000e+02 4.135355013897576981e+01
7.450000000000000000e+02 4.316481764779076258e+01
7.460000000000000000e+02 2.747390600165814334e+01
7.470000000000000000e+02 3.261968164696224193e+01
7.480000000000000000e+02 6.774260545322442795e+01
7.490000000000000000e+02 3.651127065131821325e+01
7.500000000000000000e+02 2.197380389545723745e+01
7.510000000000000000e+02 2.366339195354652603e+01
7.520000000000000000e+02 3.485260818294921847e+01
7.530000000000000000e+02 4.140914157021371267e+01
7.540000000000000000e+02 2.167327912712369198e+01
7.550000000000000000e+02 1.423478631611696699e+01
7.560000000000000000e+02 2.465044296826352621e+01
7.570000000000000000e+02 4.581379562422241492e+01
7.580000000000000000e+02 4.405534228168415467e+01
7.590000000000000000e+02 4.005737436216551117e+01
7.600000000000000000e+02 3.151202391953486170e+01
7.610000000000000000e+02 2.078633219871505133e+01
7.620000000000000000e+02 5.094689487658148863e+01
7.630000000000000000e+02 3.957873803360296705e+01
7.640000000000000000e+02 6.663747570628578387e+01
7.650000000000000000e+02 5.764845100808871337e+01
7.660000000000000000e+02 1.698062942024595401e+01
7.670000000000000000e+02 1.239184168222246196e+00
7.680000000000000000e+02 1.332085066583725563e+01
7.690000000000000000e+02 3.131420215930285877e+01
7.700000000000000000e+02 4.439311013482670631e+01
7.710000000000000000e+02 2.224427767683102530e+01
7.720000000000000000e+02 1.903035886123232956e+01
7.730000000000000000e+02 3.639322471064104292e+01
7.740000000000000000e+02 3.799081094586185259e+01
7.750000000000000000e+02 3.041093007259841485e+01
7.760000000000000000e+02 2.529573695291377433e+00
7.770000000000000000e+02 1.212407667980108528e+01
7.780000000000000000e+02 2.061532270690726065e+01
7.790000000000000000e+02 1.834483612528518393e+01
7.800000000000000000e+02 3.167552438822118432e+01
7.810000000000000000e+02 5.710400338311536217e+01
7.820000000000000000e+02 2.451430263845661628e+01
7.830000000000000000e+02 2.524866043550405337e+01
7.840000000000000000e+02 2.306610856046454217e+01
7.850000000000000000e+02 2.279881866832608139e+01
7.860000000000000000e+02 3.450739939444238757e+01
7.870000000000000000e+02 4.263768986932171856e+01
7.880000000000000000e+02 2.765839787388507176e+01
7.890000000000000000e+02 2.083624919518787522e+01
7.900000000000000000e+02 3.964660939016803098e+01
7.910000000000000000e+02 2.608631887990058118e+01
7.920000000000000000e+02 2.654859204107058446e+01
7.930000000000000000e+02 4.336925453640323269e+01
7.940000000000000000e+02 3.235691035054996689e+01
7.950000000000000000e+02 8.617111303049092896e+00
7.960000000000000000e+02 1.175833321966393008e+01
7.970000000000000000e+02 2.239706283343687687e+01
7.980000000000000000e+02 3.598718600497824127e+01
7.990000000000000000e+02 4.377560322339760290e+01
8.000000000000000000e+02 3.530939329184847253e+01
8.010000000000000000e+02 2.105847403235844695e+01
8.020000000000000000e+02 3.459410618129020776e+01
8.030000000000000000e+02 2.858413886768975232e+01
8.040000000000000000e+02 3.897745987969295101e+01
8.050000000000000000e+02 3.578205892968244939e+01
8.060000000000000000e+02 3.897876351513855298e+01
8.070000000000000000e+02 4.439617527898796823e+01
8.080000000000000000e+02 2.729589252437262914e+01
8.090000000000000000e+02 3.178796641642459164e+01
8.100000000000000000e+02 4.026402888612313546e+01
8.110000000000000000e+02 3.137934449491840638e+01
8.120000000000000000e+02 2.946340200953949662e+01
8.130000000000000000e+02 2.047217748185059349e+01
8.140000000000000000e+02 9.608039004355999779e+00
8.150000000000000000e+02 1.650493278158066701e+01
8.160000000000000000e+02 9.418610814146289201e+00
8.170000000000000000e+02 2.751578466500714981e+01
8.180000000000000000e+02 2.278354472516059559e+01
8.190000000000000000e+02 1.346812064716860924e+01
8.200000000000000000e+02 2.339317175274868532e+01
8.210000000000000000e+02 3.456974956025746337e+01
8.220000000000000000e+02 2.049635838415250078e+01
8.230000000000000000e+02 2.423922960174259700e+01
8.240000000000000000e+02 3.131459225264459434e+01
8.250000000000000000e+02 1.583075542211236453e+01
8.260000000000000000e+02 1.891466929060789948e+00
8.270000000000000000e+02 1.324065776291159224e+01
8.280000000000000000e+02 3.588259284380769998e+01
8.290000000000000000e+02 4.088189004977155605e+01
8.300000000000000000e+02 4.583102974071788793e+01
8.310000000000000000e+02 2.781001616677076527e+01
8.320000000000000000e+02 4.761451114475461210e+00
8.330000000000000000e+02 8.359513578095945974e+00
8.340000000000000000e+02 2.643549278158065619e+01
8.350000000000000000e+02 2.335456041476521349e+01
8.360000000000000000e+02 3.681416923874818892e+00
8.370000000000000000e+02 2.612263358431921390e+01
8.380000000000000000e+02 3.745529531729553696e+01
8.390000000000000000e+02 3.257335472723535474e+01
8.400000000000000000e+02 2.612003093549024868e+01
8.410000000000000000e+02 4.084364427001199260e+01
8.420000000000000000e+02 2.769796418792725490e+01
8.430000000000000000e+02 3.098307163451591251e+01
8.440000000000000000e+02 3.429485922007964405e+01
8.450000000000000000e+02 3.029866427297244158e+01
8.460000000000000000e+02 8.206208919726496021e+00
8.470000000000000000e+02 5.846767448662098410e+00
8.480000000000000000e+02 2.203458325451150301e+01
8.490000000000000000e+02 1.514627938394530027e+01
8.500000000000000000e+02 1.039026098527342068e+00
8.510000000000000000e+02 1.227214882389554163e+01
8.520000000000000000e+02 3.906739578510610045e+00
8.530000000000000000e+02 1.571552628915201666e+01
8.540000000000000000e+02 7.760237799211418874e+00
8.550000000000000000e+02 2.480883182082126481e+01
8.560000000000000000e+02 2.532835804604853180e+01
8.570000000000000000e+02 2.104832811449842112e+01
8.580000000000000000e+02 6.390935033180864977e+00
8.590000000000000000e+02 9.835957276084013046e+00
8.600000000000000000e+02 1.412980947728618730e+01
8.610000000000000000e+02 6.549987608046658139e+00
8.620000000000000000e+02 9.532379979257200375e+00
8.630000000000000000e+02 1.969266886952925688e+01
8.640000000000000000e+02 1.641232627747834982e+01
8.650000000000000000e+02 3.317919143123828718e+01
8.660000000000000000e+02 3.780765011408036003e+00
8.670000000000000000e+02 6.652106898797591761e+00
8.680000000000000000e+02 2.836006835096544165e+01
8.690000000000000000e+02 4.198652558805958890e+00
8.700000000000000000e+02 1.459579971063963910e+01
8.710000000000000000e+02 9.729251828251927137e+00
8.720000000000000000e+02 1.891874408421481135e+01
8.730000000000000000e+02 1.412115696121145803e+01
8.740000000000000000e+02 1.282001672059729636e+01
8.750000000000000000e+02 2.804916297655879021e+00
8.760000000000000000e+02 2.792837331881249163e+00
8.770000000000000000e+02 1.064198574569580380e+01
8.780000000000000000e+02 6.191639647791189915e+00
8.790000000000000000e+02 2.287692448662037581e+00
8.800000000000000000e+02 2.293181250155615913e+01
8.810000000000000000e+02 1.042427389213890621e+01
8.820000000000000000e+02 1.464762920364971066e+01
8.830000000000000000e+02 4.576677351793859039e+00
8.840000000000000000e+02 7.000074859987819309e+00
8.850000000000000000e+02 5.241420115719369832e+00
8.860000000000000000e+02 5.085204012031113052e+00
8.870000000000000000e+02 3.270661144990568925e+00
8.880000000000000000e+02 2.528445780589313685e+00
8.890000000000000000e+02 3.083374156191625204e+01
8.900000000000000000e+02 2.445045895664842206e+01
8.910000000000000000e+02 1.062669995748654550e+01
8.920000000000000000e+02 5.026805123625818439e+00
8.930000000000000000e+02 1.203968562538891973e+01
8.940000000000000000e+02 8.131174639983369090e+00
8.950000000000000000e+02 1.228773232524371473e+01
8.960000000000000000e+02 2.668682353038871025e+00
8.970000000000000000e+02 2.609030831362928904e+00
8.980000000000000000e+02 1.253205216552621337e+01
8.990000000000000000e+02 3.004164427089835243e+01
9.000000000000000000e+02 2.346951633270988680e+01
9.010000000000000000e+02 8.270419673927071003e+00
9.020000000000000000e+02 3.127660579962679677e+01
9.030000000000000000e+02 3.221429324206630440e+01
9.040000000000000000e+02 6.289787199543239282e+00
9.050000000000000000e+02 7.053550058494186814e+00
9.060000000000000000e+02 2.751063130678278412e+01
9.070000000000000000e+02 3.069503367766027679e+01
9.080000000000000000e+02 2.266530359676417206e+01
9.090000000000000000e+02 3.056312038581246782e+01
9.100000000000000000e+02 4.706757624351792657e+01
9.110000000000000000e+02 3.997398447117372910e+01
9.120000000000000000e+02 2.448284743621646697e+01
9.130000000000000000e+02 3.170687818294968707e+01
9.140000000000000000e+02 5.520649967233525501e+01
9.150000000000000000e+02 6.627355793818702523e+01
9.160000000000000000e+02 7.888526227753581566e+01
9.170000000000000000e+02 8.938113634176663425e+01
9.180000000000000000e+02 4.773995984028204020e+01
9.190000000000000000e+02 1.106099726944615327e+02
9.200000000000000000e+02 1.033995677727082665e+02
9.210000000000000000e+02 1.550798128811452443e+02
9.220000000000000000e+02 1.800242889442024818e+02
9.230000000000000000e+02 1.646204401161584485e+02
9.240000000000000000e+02 1.848334029454469203e+02
9.250000000000000000e+02 2.373224068450525408e+02
9.260000000000000000e+02 2.190351472930928480e+02
9.270000000000000000e+02 2.720585254926361927e+02
9.280000000000000000e+02 2.964070528728476006e+02
9.290000000000000000e+02 3.427941744866211025e+02
9.300000000000000000e+02 4.126146068450522080e+02
9.310000000000000000e+02 4.937323566479967099e+02
9.320000000000000000e+02 5.996844626840900219e+02
9.330000000000000000e+02 7.244106695083992236e+02
9.340000000000000000e+02 8.314992274424362222e+02
9.350000000000000000e+02 1.066137782949593429e+03
9.360000000000000000e+02 1.426012403235836246e+03
9.370000000000000000e+02 1.884989400456227713e+03
9.380000000000000000e+02 2.572751382078413371e+03
9.390000000000000000e+02 3.578593968886129915e+03
9.400000000000000000e+02 4.872074882206521579e+03
9.410000000000000000e+02 6.400568725990431631e+03
9.420000000000000000e+02 8.279192414022041703e+03
9.430000000000000000e+02 1.043322814703437689e+04
9.440000000000000000e+02 1.290804578095825673e+04
9.450000000000000000e+02 1.569065471271512070e+04
9.460000000000000000e+02 1.871733060141014357e+04
9.470000000000000000e+02 2.188000688446372806e+04
9.480000000000000000e+02 2.485002615432473613e+04
9.490000000000000000e+02 2.664338226876812769e+04
9.500000000000000000e+02 2.551555352209091870e+04
9.510000000000000000e+02 2.175441669363213077e+04
9.520000000000000000e+02 1.692096016179215439e+04
9.530000000000000000e+02 1.240308537025513397e+04
9.540000000000000000e+02 8.697826485169056468e+03
9.550000000000000000e+02 5.872312516697728825e+03
9.560000000000000000e+02 3.905171719145371299e+03
9.570000000000000000e+02 2.581359611076518831e+03
9.580000000000000000e+02 1.763952148102072442e+03
9.590000000000000000e+02 1.290639923459878219e+03
9.600000000000000000e+02 9.680041614602662321e+02
9.610000000000000000e+02 7.393463846297514692e+02
9.620000000000000000e+02 6.121303903547018308e+02
9.630000000000000000e+02 5.153398520116190866e+02
9.640000000000000000e+02 4.251479965774745438e+02
9.650000000000000000e+02 3.911834461107663401e+02
9.660000000000000000e+02 3.527133193488194252e+02
9.670000000000000000e+02 2.901803228375858339e+02
9.680000000000000000e+02 2.762649263430824362e+02
9.690000000000000000e+02 2.399620717544585773e+02
9.700000000000000000e+02 2.119412829495953474e+02
9.710000000000000000e+02 1.615789301804592526e+02
9.720000000000000000e+02 1.332900673372059543e+02
9.730000000000000000e+02 1.713128240199129664e+02
9.740000000000000000e+02 1.326772763741951735e+02
9.750000000000000000e+02 1.331796907507255128e+02
9.760000000000000000e+02 1.444196328562532869e+02
9.770000000000000000e+02 1.397478250570418652e+02
9.780000000000000000e+02 1.420157917029659700e+02
9.790000000000000000e+02 1.426414913295999156e+02
9.800000000000000000e+02 1.378341024268823958e+02
9.810000000000000000e+02 1.398005881767267624e+02
9.820000000000000000e+02 1.457193043974278339e+02
9.830000000000000000e+02 1.507717045633685302e+02
9.840000000000000000e+02 1.529604833851898036e+02
9.850000000000000000e+02 1.536288159925327079e+02
9.860000000000000000e+02 1.721835319020951829e+02
9.870000000000000000e+02 1.953957910599467596e+02
9.880000000000000000e+02 2.224306186060992729e+02
9.890000000000000000e+02 2.484885411325456346e+02
9.900000000000000000e+02 2.707765998133199332e+02
9.910000000000000000e+02 3.369191126322368177e+02
9.920000000000000000e+02 4.062759538365843923e+02
9.930000000000000000e+02 4.647218896079618844e+02
9.940000000000000000e+02 5.712277969508447768e+02
9.950000000000000000e+02 6.911327347573663928e+02
9.960000000000000000e+02 8.115319292470418304e+02
9.970000000000000000e+02 9.578187758141431232e+02
9.980000000000000000e+02 1.152911626296141549e+03
9.990000000000000000e+02 1.365167440572495934e+03
1.000000000000000000e+03 1.482513014312383348e+03
1.001000000000000000e+03 1.592966439834021685e+03
1.002000000000000000e+03 1.748797518672201477e+03
1.003000000000000000e+03 1.839147873443982462e+03
1.004000000000000000e+03 1.788891477178417290e+03
1.005000000000000000e+03 1.577522755186724453e+03
1.006000000000000000e+03 1.277092900621107901e+03
1.007000000000000000e+03 9.941149078838112700e+02
1.008000000000000000e+03 7.500133298755247324e+02
1.009000000000000000e+03 5.811104452282114607e+02
1.010000000000000000e+03 4.460479518672229347e+02
1.011000000000000000e+03 3.134423668049798835e+02
1.012000000000000000e+03 2.343269914937756084e+02
1.013000000000000000e+03 2.040827784232367605e+02
1.014000000000000000e+03 1.813091284232361318e+02
1.015000000000000000e+03 1.571061763485479901e+02
1.016000000000000000e+03 1.403583315352688032e+02
1.017000000000000000e+03 1.095907568464732549e+02
1.018000000000000000e+03 8.799688311203334479e+01
1.019000000000000000e+03 9.946065188796643497e+01
1.020000000000000000e+03 5.933482809128798152e+01
1.021000000000000000e+03 2.413457365145189470e+01
1.022000000000000000e+03 2.010954871369283481e+01
1.023000000000000000e+03 1.061362350207443583e+01
1.024000000000000000e+03 4.023961165975026510e+00
1.025000000000000000e+03 6.673209464729943363e+00
1.026000000000000000e+03 6.060001817427262516e+00
1.027000000000000000e+03 8.082926666666345739e+00
1.028000000000000000e+03 4.332491199170156015e+00
1.029000000000000000e+03 1.015231513070563096e+01
1.030000000000000000e+03 6.359177406648210962e-01
1.031000000000000000e+03 6.735107282158142361e+00
1.032000000000000000e+03 9.434471344397522330e+00
1.033000000000000000e+03 1.010028000000217929e+01
1.034000000000000000e+03 1.473267572614052767e+01
1.035000000000000000e+03 3.119075122153229884e+01
1.036000000000000000e+03 2.712483597510345135e+01
1.037000000000000000e+03 1.032365430083066649e+01
1.038000000000000000e+03 1.324171520746841857e+00
1.039000000000000000e+03 3.927279902490117713e+00
1.040000000000000000e+03 6.003708348547061924e+00
1.041000000000000000e+03 1.357011307053942950e+01
1.042000000000000000e+03 5.184882568464370678e+00
1.043000000000000000e+03 1.811776157676344923e+01
1.044000000000000000e+03 3.202797450207432206e+01
1.045000000000000000e+03 3.630361485477175876e+01
1.046000000000000000e+03 3.454595526970818042e+01
1.047000000000000000e+03 1.261326408695754786e+01
1.048000000000000000e+03 3.094368975103759212e+01
1.049000000000000000e+03 5.917396755186785384e+01
1.050000000000000000e+03 7.246140302904601072e+01
1.051000000000000000e+03 8.492141248962639111e+01
1.052000000000000000e+03 8.627429844398345438e+01
1.053000000000000000e+03 1.012562254564347484e+02
1.054000000000000000e+03 1.565718338174237090e+02
1.055000000000000000e+03 1.995953757261409578e+02
1.056000000000000000e+03 2.637227565217448841e+02
1.057000000000000000e+03 3.402968825726075579e+02
1.058000000000000000e+03 4.718430381742692248e+02
1.059000000000000000e+03 6.732068622406721943e+02
1.060000000000000000e+03 9.004467721991844655e+02
1.061000000000000000e+03 1.145772128630689622e+03
1.062000000000000000e+03 1.477631089211621884e+03
1.063000000000000000e+03 1.780444284232389236e+03
1.064000000000000000e+03 2.150881869565184843e+03
1.065000000000000000e+03 2.558333526970950061e+03
1.066000000000000000e+03 2.935716008298772522e+03
1.067000000000000000e+03 3.255244099585046570e+03
1.068000000000000000e+03 3.236504477178436446e+03
1.069000000000000000e+03 2.806533095435670475e+03
1.070000000000000000e+03 2.191298591286251394e+03
1.071000000000000000e+03 1.550413578838214335e+03
1.072000000000000000e+03 1.085061552173919381e+03
1.073000000000000000e+03 7.424536439833840404e+02
1.074000000000000000e+03 4.941635497925486220e+02
1.075000000000000000e+03 3.905328161825754023e+02
1.076000000000000000e+03 3.081331577639728039e+02
1.077000000000000000e+03 2.761345734439833564e+02
1.078000000000000000e+03 2.828905080912868470e+02
1.079000000000000000e+03 2.671448697095436842e+02
1.080000000000000000e+03 2.494639970954350758e+02
1.081000000000000000e+03 2.442121834024900977e+02
1.082000000000000000e+03 2.362767543568466806e+02
1.083000000000000000e+03 2.278426863070536115e+02
1.084000000000000000e+03 2.046030522821553745e+02
1.085000000000000000e+03 2.174095379668051464e+02
1.086000000000000000e+03 1.896344495850616738e+02
1.087000000000000000e+03 1.578648713692943488e+02
1.088000000000000000e+03 1.539066836099590319e+02
1.089000000000000000e+03 1.421716473029048302e+02
1.090000000000000000e+03 1.192125286307045258e+02
1.091000000000000000e+03 1.064955970954357269e+02
1.092000000000000000e+03 1.008835736929464844e+02
1.093000000000000000e+03 8.940867111801215117e+01
1.094000000000000000e+03 6.536707477178218539e+01
1.095000000000000000e+03 6.629446788381638100e+01
1.096000000000000000e+03 3.024525302904687152e+01
1.097000000000000000e+03 2.129363728364556607e+01
1.098000000000000000e+03 3.287334713693280719e+01
1.099000000000000000e+03 2.161854311203023826e+01
1.100000000000000000e+03 5.974374477178357523e+01
1.101000000000000000e+03 2.492263717842313397e+01
1.102000000000000000e+03 3.402502709543516346e+01
1.103000000000000000e+03 3.734857670124480222e+01
1.104000000000000000e+03 4.678755029045696290e+01
1.105000000000000000e+03 5.088801393374740911e+01
1.106000000000000000e+03 3.966298622406689844e+01
1.107000000000000000e+03 1.746466290456350023e+01
1.108000000000000000e+03 5.210831369294867343e+00
1.109000000000000000e+03 5.675346336099980959e+00
1.110000000000000000e+03 4.152255844398369788e+01
1.111000000000000000e+03 4.706455753112038565e+01
1.112000000000000000e+03 4.357210539418818485e+01
1.113000000000000000e+03 7.024497571428580045e+01
1.114000000000000000e+03 4.224782385891927561e+01
1.115000000000000000e+03 8.980324813277116291e+00
1.116000000000000000e+03 1.211080128630627861e+00
1.117000000000000000e+03 1.345411952380977638e+01
1.118000000000000000e+03 2.718680076763499898e+01
1.119000000000000000e+03 3.453995004149265213e+01
1.120000000000000000e+03 4.980300292531087081e+01
1.121000000000000000e+03 5.376174885892066158e+01
1.122000000000000000e+03 2.815595047619174096e+01
1.123000000000000000e+03 5.400926439833913406e+01
1.124000000000000000e+03 3.928220580912820026e+01
1.125000000000000000e+03 4.376023070539487492e+01
1.126000000000000000e+03 4.711080553941938120e+01
1.127000000000000000e+03 4.319652325726143971e+01
1.128000000000000000e+03 3.366069653526881211e+01
1.129000000000000000e+03 2.985062869294668531e+01
1.130000000000000000e+03 4.682214331950156350e+01
1.131000000000000000e+03 5.086205344398262440e+01
1.132000000000000000e+03 3.020284680497942631e+01
1.133000000000000000e+03 6.382110323651318140e+01
1.134000000000000000e+03 4.127313801242227953e+01
1.135000000000000000e+03 3.484044923236564273e+01
1.136000000000000000e+03 5.594465626555856375e+01
1.137000000000000000e+03 4.684871842323777713e+01
1.138000000000000000e+03 3.739554497925317378e+01
1.139000000000000000e+03 4.090318116182504582e+01
1.140000000000000000e+03 3.489110734439845629e+01
1.141000000000000000e+03 4.024405203319505375e+01
1.142000000000000000e+03 5.997401757763908847e+01
1.143000000000000000e+03 3.842225599585307805e+01
1.144000000000000000e+03 1.045450381742780621e+01
1.145000000000000000e+03 1.814926172199017529e+00
1.146000000000000000e+03 9.378602770186102333e+00
1.147000000000000000e+03 6.090037178423802544e+00
1.148000000000000000e+03 7.045720398340404422e+00
1.149000000000000000e+03 4.380849278007357128e+00
1.150000000000000000e+03 2.073194810373222552e+01
1.151000000000000000e+03 4.369187790890259748e+01
1.152000000000000000e+03 2.904096431949983526e+01
1.153000000000000000e+03 5.236779396265661468e+00
1.154000000000000000e+03 2.344372460579974504e+00
1.155000000000000000e+03 2.309366178423317351e+01
1.156000000000000000e+03 5.289338987551964522e+01
1.157000000000000000e+03 4.007500265560368291e+01
1.158000000000000000e+03 2.969371655601655391e+01
1.159000000000000000e+03 2.627960414937713196e+01
1.160000000000000000e+03 5.402459118257165471e+01
1.161000000000000000e+03 7.359426321576856367e+01
1.162000000000000000e+03 5.291693923236523744e+01
1.163000000000000000e+03 6.388099472049677985e+01
1.164000000000000000e+03 3.931881390041647251e+01
1.165000000000000000e+03 2.438257000000000119e+01
1.166000000000000000e+03 2.879779717842447795e+01
1.167000000000000000e+03 5.099359546583784208e+01
1.168000000000000000e+03 4.194992943983432809e+01
1.169000000000000000e+03 4.791339807053983435e+01
1.170000000000000000e+03 3.515488373443935188e+01
1.171000000000000000e+03 3.918069434782358229e+01
1.172000000000000000e+03 6.035745485477162475e+01
1.173000000000000000e+03 3.812809282157422075e+01
1.174000000000000000e+03 1.395189680498030604e+01
1.175000000000000000e+03 2.077169380952356192e+01
1.176000000000000000e+03 4.706901533195154741e+01
1.177000000000000000e+03 6.297777603734371610e+01
1.178000000000000000e+03 3.560773900415102844e+01
1.179000000000000000e+03 4.874139188405815304e+01
1.180000000000000000e+03 6.934818651452326321e+01
1.181000000000000000e+03 6.078792684647469713e+01
1.182000000000000000e+03 4.410621107883829950e+01
1.183000000000000000e+03 4.537334937759403175e+01
1.184000000000000000e+03 6.437136278008061652e+01
1.185000000000000000e+03 7.819667653526975926e+01
1.186000000000000000e+03 5.941428508298665179e+01
1.187000000000000000e+03 1.978243159750884672e+01
1.188000000000000000e+03 3.132120921161706306e+01
1.189000000000000000e+03 4.840772443983401274e+01
1.190000000000000000e+03 7.430130522821706052e+01
1.191000000000000000e+03 4.529575970954809350e+01
1.192000000000000000e+03 3.494098778008303441e+01
1.193000000000000000e+03 2.256091620331882908e+01
1.194000000000000000e+03 2.400324043568644683e+01
1.195000000000000000e+03 5.059138433609805929e+01
1.196000000000000000e+03 4.970643902691520566e+01
1.197000000000000000e+03 2.309920008298792027e+01
1.198000000000000000e+03 2.500314356846674002e+01
1.199000000000000000e+03 2.102464206946345726e+00
1.200000000000000000e+03 1.572745152174013405e+01
1.201000000000000000e+03 4.056627261410729091e+01
1.202000000000000000e+03 1.638271085062445920e+01
1.203000000000000000e+03 4.774773029045646489e+00
1.204000000000000000e+03 1.309814624844833375e+01
1.205000000000000000e+03 1.631973224066397776e+01
1.206000000000000000e+03 2.327325049792512957e+01
1.207000000000000000e+03 1.375816710373385021e+01
1.208000000000000000e+03 1.271258514285523233e+01
1.209000000000000000e+03 1.991948900414782742e+01
1.210000000000000000e+03 4.642951879668042636e+01
1.211000000000000000e+03 2.916478188796443405e+01
1.212000000000000000e+03 4.231402224066967754e+00
1.213000000000000000e+03 1.214380099585071981e+00
1.214000000000000000e+03 7.572287987552325461e+00
1.215000000000000000e+03 2.619332917012673345e+00
1.216000000000000000e+03 8.044918739505493299e-01
1.217000000000000000e+03 2.512619363693084296e+01
1.218000000000000000e+03 3.735341670124463320e+01
1.219000000000000000e+03 1.143089156846545684e+01
1.220000000000000000e+03 1.411469058091292972e+01
1.221000000000000000e+03 4.923107132780661033e+00
1.222000000000000000e+03 1.420377323651512214e+01
1.223000000000000000e+03 1.036690371784169784e+01
1.224000000000000000e+03 2.704740190871354599e+01
1.225000000000000000e+03 4.790538086956559027e+00
1.226000000000000000e+03 2.147400906638904772e+01
1.227000000000000000e+03 1.263771623236504027e+01
1.228000000000000000e+03 3.210088643153519161e+00
1.229000000000000000e+03 2.200037291925378469e+01
1.230000000000000000e+03 9.545376290457166846e+00
1.231000000000000000e+03 1.598268155601790497e+01
1.232000000000000000e+03 3.714395120331856504e+01
1.233000000000000000e+03 1.384781221991667266e+01
1.234000000000000000e+03 2.322051699170147643e+01
1.235000000000000000e+03 3.621312823651614821e+01
1.236000000000000000e+03 4.463124143153810053e+01
1.237000000000000000e+03 8.414351366459925430e+00
1.238000000000000000e+03 1.255112182572598201e+01
1.239000000000000000e+03 5.105224763485576744e+00
1.240000000000000000e+03 1.559634547717662656e+01
1.241000000000000000e+03 3.125369971014492521e+01
1.242000000000000000e+03 1.017710743983032096e+01
1.243000000000000000e+03 1.884296473651179937e+01
1.244000000000000000e+03 3.960052695020746683e+01
1.245000000000000000e+03 4.171201406639056586e+01
1.246000000000000000e+03 4.786015128630891269e+01
1.247000000000000000e+03 3.003835784232407846e+01
1.248000000000000000e+03 2.544127095435746000e+01
1.249000000000000000e+03 4.926018614108061655e+01
1.250000000000000000e+03 6.088547784232419957e+01
1.251000000000000000e+03 4.433421240663902552e+01
1.252000000000000000e+03 6.980902997925481657e+01
1.253000000000000000e+03 5.302984363070528673e+01
1.254000000000000000e+03 7.457528452282078035e+01
1.255000000000000000e+03 5.201599373443703200e+01
1.256000000000000000e+03 1.429853917012278153e+01
1.257000000000000000e+03 1.947967352696982246e+01
1.258000000000000000e+03 2.979071477178428395e+01
1.259000000000000000e+03 5.067987479253429939e+01
1.260000000000000000e+03 7.755006360996338799e+01
1.261000000000000000e+03 2.577316060166057810e+01
1.262000000000000000e+03 1.555586900415188190e+01
1.263000000000000000e+03 5.907840937759328170e+01
1.264000000000000000e+03 3.894463203319583755e+01
1.265000000000000000e+03 3.819975211618264410e+01
1.266000000000000000e+03 4.241842115942043279e+01
1.267000000000000000e+03 4.236050207468897355e+01
1.268000000000000000e+03 3.374749253112045722e+01
1.269000000000000000e+03 4.401396668049911653e+01
1.270000000000000000e+03 5.474446559006209867e+01
1.271000000000000000e+03 5.319059145228219876e+01
1.272000000000000000e+03 3.562340468879594368e+01
1.273000000000000000e+03 4.848233099584677852e+00
1.274000000000000000e+03 7.239406043473884722e+00
1.275000000000000000e+03 5.605138919087144700e+01
1.276000000000000000e+03 6.915717292531005000e+01
1.277000000000000000e+03 3.880428302905112758e+01
1.278000000000000000e+03 5.756931757261930294e+00
1.279000000000000000e+03 5.257787033195237569e+01
1.280000000000000000e+03 5.366065506224118309e+01
1.281000000000000000e+03 4.667945315352667279e+01
1.282000000000000000e+03 5.793369174273851741e+01
1.283000000000000000e+03 2.548803041493309607e+01
1.284000000000000000e+03 1.746820019086887754e+01
1.285000000000000000e+03 2.476770715767683129e+01
1.286000000000000000e+03 1.057366877593339183e+01
1.287000000000000000e+03 1.525761763485397360e+01
1.288000000000000000e+03 2.051514601659755499e+01
1.289000000000000000e+03 2.692029240663936918e+01
1.290000000000000000e+03 4.580227448132551160e+01
1.291000000000000000e+03 1.186515130705314647e+01
1.292000000000000000e+03 4.280112906638964887e+01
1.293000000000000000e+03 5.061385935684587167e+01
1.294000000000000000e+03 2.061619562240723269e+01
1.295000000000000000e+03 2.156983422360178082e+01
1.296000000000000000e+03 2.949481394190879158e+01
1.297000000000000000e+03 2.921345738589191754e+01
1.298000000000000000e+03 2.230654165975185066e+01
1.299000000000000000e+03 2.901535031055901470e+01
1.300000000000000000e+03 2.689776340248792863e+01
1.301000000000000000e+03 9.438135943982864262e+00
1.302000000000000000e+03 7.828999116183249285e+00
1.303000000000000000e+03 1.642483809523712646e-01
1.304000000000000000e+03 0.000000000000000000e+00
1.305000000000000000e+03 0.000000000000000000e+00
1.306000000000000000e+03 0.000000000000000000e+00
1.307000000000000000e+03 0.000000000000000000e+00
1.308000000000000000e+03 0.000000000000000000e+00
1.309000000000000000e+03 0.000000000000000000e+00
1.310000000000000000e+03 0.000000000000000000e+00
1.311000000000000000e+03 0.000000000000000000e+00
1.312000000000000000e+03 0.000000000000000000e+00
1.313000000000000000e+03 0.000000000000000000e+00
1.314000000000000000e+03 0.000000000000000000e+00
1.315000000000000000e+03 0.000000000000000000e+00
1.316000000000000000e+03 0.000000000000000000e+00
1.317000000000000000e+03 0.000000000000000000e+00
1.318000000000000000e+03 0.000000000000000000e+00
1.319000000000000000e+03 0.000000000000000000e+00
1.320000000000000000e+03 0.000000000000000000e+00
1.321000000000000000e+03 0.000000000000000000e+00
1.322000000000000000e+03 0.000000000000000000e+00
1.323000000000000000e+03 0.000000000000000000e+00
1.324000000000000000e+03 0.000000000000000000e+00
1.325000000000000000e+03 0.000000000000000000e+00
1.326000000000000000e+03 0.000000000000000000e+00
1.327000000000000000e+03 0.000000000000000000e+00
1.328000000000000000e+03 0.000000000000000000e+00
1.329000000000000000e+03 0.000000000000000000e+00
1.330000000000000000e+03 0.000000000000000000e+00
1.331000000000000000e+03 0.000000000000000000e+00
1.332000000000000000e+03 0.000000000000000000e+00
1.333000000000000000e+03 0.000000000000000000e+00
1.334000000000000000e+03 0.000000000000000000e+00
1.335000000000000000e+03 0.000000000000000000e+00
1.336000000000000000e+03 0.000000000000000000e+00
1.337000000000000000e+03 0.000000000000000000e+00
1.338000000000000000e+03 0.000000000000000000e+00
1.339000000000000000e+03 0.000000000000000000e+00
1.340000000000000000e+03 0.000000000000000000e+00
1.341000000000000000e+03 0.000000000000000000e+00
1.342000000000000000e+03 0.000000000000000000e+00
1.343000000000000000e+03 0.000000000000000000e+00
1.344000000000000000e+03 0.000000000000000000e+00
1.345000000000000000e+03 0.000000000000000000e+00
1.346000000000000000e+03 0.000000000000000000e+00
1.347000000000000000e+03 0.000000000000000000e+00
1.348000000000000000e+03 0.000000000000000000e+00
1.349000000000000000e+03 0.000000000000000000e+00
1.350000000000000000e+03 0.000000000000000000e+00
1.351000000000000000e+03 0.000000000000000000e+00
1.352000000000000000e+03 0.000000000000000000e+00
1.353000000000000000e+03 0.000000000000000000e+00
1.354000000000000000e+03 0.000000000000000000e+00
1.355000000000000000e+03 0.000000000000000000e+00
1.356000000000000000e+03 0.000000000000000000e+00
1.357000000000000000e+03 0.000000000000000000e+00
1.358000000000000000e+03 0.000000000000000000e+00
1.359000000000000000e+03 0.000000000000000000e+00
1.360000000000000000e+03 0.000000000000000000e+00
1.361000000000000000e+03 0.000000000000000000e+00
1.362000000000000000e+03 0.000000000000000000e+00
1.363000000000000000e+03 0.000000000000000000e+00
1.364000000000000000e+03 0.000000000000000000e+00
1.365000000000000000e+03 0.000000000000000000e+00
1.366000000000000000e+03 0.000000000000000000e+00
1.367000000000000000e+03 0.000000000000000000e+00
1.368000000000000000e+03 0.000000000000000000e+00
1.369000000000000000e+03 0.000000000000000000e+00
1.370000000000000000e+03 0.000000000000000000e+00
1.371000000000000000e+03 0.000000000000000000e+00
1.372000000000000000e+03 0.000000000000000000e+00
1.373000000000000000e+03 0.000000000000000000e+00
1.374000000000000000e+03 0.000000000000000000e+00
1.375000000000000000e+03 0.000000000000000000e+00
1.376000000000000000e+03 0.000000000000000000e+00
1.377000000000000000e+03 0.000000000000000000e+00
1.378000000000000000e+03 0.000000000000000000e+00
1.379000000000000000e+03 0.000000000000000000e+00
1.380000000000000000e+03 0.000000000000000000e+00
1.381000000000000000e+03 0.000000000000000000e+00
1.382000000000000000e+03 0.000000000000000000e+00
1.383000000000000000e+03 0.000000000000000000e+00
1.384000000000000000e+03 0.000000000000000000e+00
1.385000000000000000e+03 0.000000000000000000e+00
1.386000000000000000e+03 0.000000000000000000e+00
1.387000000000000000e+03 0.000000000000000000e+00
1.388000000000000000e+03 0.000000000000000000e+00
1.389000000000000000e+03 0.000000000000000000e+00
1.390000000000000000e+03 0.000000000000000000e+00
1.391000000000000000e+03 0.000000000000000000e+00
1.392000000000000000e+03 0.000000000000000000e+00
1.393000000000000000e+03 0.000000000000000000e+00
1.394000000000000000e+03 0.000000000000000000e+00
1.395000000000000000e+03 0.000000000000000000e+00
1.396000000000000000e+03 0.000000000000000000e+00
1.397000000000000000e+03 0.000000000000000000e+00
1.398000000000000000e+03 0.000000000000000000e+00
1.399000000000000000e+03 0.000000000000000000e+00
1.400000000000000000e+03 0.000000000000000000e+00
1.401000000000000000e+03 0.000000000000000000e+00
1.402000000000000000e+03 0.000000000000000000e+00
1.403000000000000000e+03 0.000000000000000000e+00
1.404000000000000000e+03 0.000000000000000000e+00
1.405000000000000000e+03 0.000000000000000000e+00
1.406000000000000000e+03 0.000000000000000000e+00
1.407000000000000000e+03 0.000000000000000000e+00
1.408000000000000000e+03 0.000000000000000000e+00
1.409000000000000000e+03 0.000000000000000000e+00
1.410000000000000000e+03 0.000000000000000000e+00
1.411000000000000000e+03 0.000000000000000000e+00
1.412000000000000000e+03 0.000000000000000000e+00
1.413000000000000000e+03 0.000000000000000000e+00
1.414000000000000000e+03 0.000000000000000000e+00
1.415000000000000000e+03 0.000000000000000000e+00
1.416000000000000000e+03 0.000000000000000000e+00
1.417000000000000000e+03 0.000000000000000000e+00
1.418000000000000000e+03 0.000000000000000000e+00
1.419000000000000000e+03 0.000000000000000000e+00
1.420000000000000000e+03 0.000000000000000000e+00
1.421000000000000000e+03 0.000000000000000000e+00
1.422000000000000000e+03 0.000000000000000000e+00
1.423000000000000000e+03 0.000000000000000000e+00
1.424000000000000000e+03 0.000000000000000000e+00
1.425000000000000000e+03 0.000000000000000000e+00
1.426000000000000000e+03 0.000000000000000000e+00
1.427000000000000000e+03 0.000000000000000000e+00
1.428000000000000000e+03 0.000000000000000000e+00
1.429000000000000000e+03 0.000000000000000000e+00
1.430000000000000000e+03 0.000000000000000000e+00
1.431000000000000000e+03 0.000000000000000000e+00
1.432000000000000000e+03 0.000000000000000000e+00
1.433000000000000000e+03 0.000000000000000000e+00
1.434000000000000000e+03 0.000000000000000000e+00
1.435000000000000000e+03 0.000000000000000000e+00
1.436000000000000000e+03 0.000000000000000000e+00
1.437000000000000000e+03 0.000000000000000000e+00
1.438000000000000000e+03 0.000000000000000000e+00
1.439000000000000000e+03 0.000000000000000000e+00
1.440000000000000000e+03 0.000000000000000000e+00
1.441000000000000000e+03 0.000000000000000000e+00
1.442000000000000000e+03 0.000000000000000000e+00
1.443000000000000000e+03 0.000000000000000000e+00
1.444000000000000000e+03 0.000000000000000000e+00
1.445000000000000000e+03 0.000000000000000000e+00
1.446000000000000000e+03 0.000000000000000000e+00
1.447000000000000000e+03 0.000000000000000000e+00
1.448000000000000000e+03 0.000000000000000000e+00
1.449000000000000000e+03 0.000000000000000000e+00
1.450000000000000000e+03 0.000000000000000000e+00
1.451000000000000000e+03 0.000000000000000000e+00
1.452000000000000000e+03 0.000000000000000000e+00
1.453000000000000000e+03 0.000000000000000000e+00
1.454000000000000000e+03 0.000000000000000000e+00
1.455000000000000000e+03 0.000000000000000000e+00
1.456000000000000000e+03 0.000000000000000000e+00
1.457000000000000000e+03 0.000000000000000000e+00
1.458000000000000000e+03 0.000000000000000000e+00
1.459000000000000000e+03 0.000000000000000000e+00
1.460000000000000000e+03 0.000000000000000000e+00
1.461000000000000000e+03 0.000000000000000000e+00
1.462000000000000000e+03 0.000000000000000000e+00
1.463000000000000000e+03 0.000000000000000000e+00
1.464000000000000000e+03 0.000000000000000000e+00
1.465000000000000000e+03 0.000000000000000000e+00
1.466000000000000000e+03 0.000000000000000000e+00
1.467000000000000000e+03 0.000000000000000000e+00
1.468000000000000000e+03 0.000000000000000000e+00
1.469000000000000000e+03 0.000000000000000000e+00
1.470000000000000000e+03 0.000000000000000000e+00
1.471000000000000000e+03 0.000000000000000000e+00
1.472000000000000000e+03 0.000000000000000000e+00
1.473000000000000000e+03 0.000000000000000000e+00
1.474000000000000000e+03 0.000000000000000000e+00
1.475000000000000000e+03 0.000000000000000000e+00
1.476000000000000000e+03 0.000000000000000000e+00
1.477000000000000000e+03 0.000000000000000000e+00
1.478000000000000000e+03 0.000000000000000000e+00
1.479000000000000000e+03 0.000000000000000000e+00
1.480000000000000000e+03 0.000000000000000000e+00
1.481000000000000000e+03 0.000000000000000000e+00
1.482000000000000000e+03 0.000000000000000000e+00
1.483000000000000000e+03 0.000000000000000000e+00
1.484000000000000000e+03 0.000000000000000000e+00
1.485000000000000000e+03 0.000000000000000000e+00
1.486000000000000000e+03 0.000000000000000000e+00
1.487000000000000000e+03 0.000000000000000000e+00
1.488000000000000000e+03 0.000000000000000000e+00
1.489000000000000000e+03 0.000000000000000000e+00
1.490000000000000000e+03 0.000000000000000000e+00
1.491000000000000000e+03 0.000000000000000000e+00
1.492000000000000000e+03 0.000000000000000000e+00
1.493000000000000000e+03 0.000000000000000000e+00
1.494000000000000000e+03 0.000000000000000000e+00
1.495000000000000000e+03 0.000000000000000000e+00
1.496000000000000000e+03 0.000000000000000000e+00
1.497000000000000000e+03 0.000000000000000000e+00
1.498000000000000000e+03 0.000000000000000000e+00
1.499000000000000000e+03 0.000000000000000000e+00
1.500000000000000000e+03 0.000000000000000000e+00
