1.010000000000000000e+02 0.000000000000000000e+00
1.020000000000000000e+02 0.000000000000000000e+00
1.030000000000000000e+02 0.000000000000000000e+00
1.040000000000000000e+02 0.000000000000000000e+00
1.050000000000000000e+02 0.000000000000000000e+00
1.060000000000000000e+02 0.000000000000000000e+00
1.070000000000000000e+02 0.000000000000000000e+00
1.080000000000000000e+02 0.000000000000000000e+00
1.090000000000000000e+02 0.000000000000000000e+00
1.100000000000000000e+02 0.000000000000000000e+00
1.110000000000000000e+02 0.000000000000000000e+00
1.120000000000000000e+02 0.000000000000000000e+00
1.130000000000000000e+02 0.000000000000000000e+00
1.140000000000000000e+02 0.000000000000000000e+00
1.150000000000000000e+02 0.000000000000000000e+00
1.160000000000000000e+02 0.000000000000000000e+00
1.170000000000000000e+02 0.000000000000000000e+00
1.180000000000000000e+02 0.000000000000000000e+00
1.190000000000000000e+02 0.000000000000000000e+00
1.200000000000000000e+02 0.000000000000000000e+00
1.210000000000000000e+02 0.000000000000000000e+00
1.220000000000000000e+02 0.000000000000000000e+00
1.230000000000000000e+02 0.000000000000000000e+00
1.240000000000000000e+02 0.000000000000000000e+00
1.250000000000000000e+02 0.000000000000000000e+00
1.260000000000000000e+02 0.000000000000000000e+00
1.270000000000000000e+02 0.000000000000000000e+00
1.280000000000000000e+02 0.000000000000000000e+00
1.290000000000000000e+02 0.000000000000000000e+00
1.300000000000000000e+02 0.000000000000000000e+00
1.310000000000000000e+02 0.000000000000000000e+00
1.320000000000000000e+02 0.000000000000000000e+00
1.330000000000000000e+02 6.719097942336572649e-01
1.340000000000000000e+02 8.890527254666091395e+00
1.350000000000000000e+02 6.996519316739208350e+00
1.360000000000000000e+02 2.736114656087877606e+01
1.370000000000000000e+02 5.487939849025290329e+01
1.380000000000000000e+02 3.879632102260934801e+01
1.390000000000000000e+02 9.115611808338611510e+00
1.400000000000000000e+02 8.913253683948694217e+00
1.410000000000000000e+02 3.637521703588524247e+01
1.420000000000000000e+02 7.811289835926180558e+01
1.430000000000000000e+02 1.383809715678140435e+02
1.440000000000000000e+02 1.997189297448658181e+02
1.450000000000000000e+02 2.285840229412981728e+02
1.460000000000000000e+02 2.541240393901682637e+02
1.470000000000000000e+02 3.137232145198092326e+02
1.480000000000000000e+02 3.368750430616058793e+02
1.490000000000000000e+02 2.813446563783447800e+02
1.500000000000000000e+02 2.837798755237503769e+02
1.510000000000000000e+02 2.986466621240406880e+02
1.520000000000000000e+02 2.882466115536198004e+02
1.530000000000000000e+02 2.678112207218418348e+02
1.540000000000000000e+02 3.004939342045219632e+02
1.550000000000000000e+02 3.009560988176726255e+02
1.560000000000000000e+02 2.946954697780543597e+02
1.570000000000000000e+02 2.827647844430617283e+02
1.580000000000000000e+02 2.511365112009952441e+02
1.590000000000000000e+02 2.142389412155152115e+02
1.600000000000000000e+02 1.784332130651181956e+02
1.610000000000000000e+02 1.751619622692384723e+02
1.620000000000000000e+02 2.147198984443059828e+02
1.630000000000000000e+02 2.474438274574867478e+02
1.640000000000000000e+02 2.604704774735532169e+02
1.650000000000000000e+02 2.624795739887990180e+02
1.660000000000000000e+02 2.731632138531726355e+02
1.670000000000000000e+02 3.065203601742379647e+02
1.680000000000000000e+02 3.049590158058493330e+02
1.690000000000000000e+02 2.737531353661066760e+02
1.700000000000000000e+02 2.427883881767270111e+02
1.710000000000000000e+02 2.326651959551958839e+02
1.720000000000000000e+02 2.128027501451678063e+02
1.730000000000000000e+02 1.931763651732006224e+02
1.740000000000000000e+02 1.576378797344952716e+02
1.750000000000000000e+02 1.244590818125256817e+02
1.760000000000000000e+02 1.750611867454886692e+02
1.770000000000000000e+02 1.522370246629328676e+02
1.780000000000000000e+02 1.411588029863125655e+02
1.790000000000000000e+02 1.744267593860191994e+02
1.800000000000000000e+02 1.822256373988797975e+02
1.810000000000000000e+02 1.478974503525506634e+02
1.820000000000000000e+02 1.602863862891514657e+02
1.830000000000000000e+02 1.775639504874508816e+02
1.840000000000000000e+02 1.398391162173369366e+02
1.850000000000000000e+02 1.447828583696329190e+02
1.860000000000000000e+02 1.206396308857083710e+02
1.870000000000000000e+02 1.161664133789666238e+02
1.880000000000000000e+02 1.344317971167811834e+02
1.890000000000000000e+02 7.005941482265048137e+01
1.900000000000000000e+02 4.556601239576851015e+01
1.910000000000000000e+02 7.642602779713718064e+01
1.920000000000000000e+02 1.039836628500312941e+02
1.930000000000000000e+02 6.991886540344303569e+01
1.940000000000000000e+02 6.058812696950840859e+01
1.950000000000000000e+02 8.145453583281469889e+01
1.960000000000000000e+02 1.039025108525200665e+02
1.970000000000000000e+02 1.100075653183987470e+02
1.980000000000000000e+02 1.169784650902303014e+02
1.990000000000000000e+02 1.321504350964529806e+02
2.000000000000000000e+02 1.505281960174235678e+02
2.010000000000000000e+02 1.677384345914558139e+02
2.020000000000000000e+02 1.645152176934245176e+02
2.030000000000000000e+02 1.474675398257622589e+02
2.040000000000000000e+02 1.282495350891747137e+02
2.050000000000000000e+02 1.156760586807716322e+02
2.060000000000000000e+02 1.125934060983198890e+02
2.070000000000000000e+02 1.229285929904604018e+02
2.080000000000000000e+02 1.162495410703174485e+02
2.090000000000000000e+02 9.463518700477105483e+01
2.100000000000000000e+02 7.674507200953955532e+01
2.110000000000000000e+02 8.349455206803573049e+01
2.120000000000000000e+02 1.129832754760422660e+02
2.130000000000000000e+02 1.555235192906031330e+02
2.140000000000000000e+02 1.960539795685546096e+02
2.150000000000000000e+02 2.198244834681601958e+02
2.160000000000000000e+02 2.250628224019912409e+02
2.170000000000000000e+02 2.668693682016174193e+02
2.180000000000000000e+02 3.429514051649023827e+02
2.190000000000000000e+02 4.205395897967653127e+02
2.200000000000000000e+02 4.553661157851068992e+02
2.210000000000000000e+02 4.765874767890478552e+02
2.220000000000000000e+02 5.107542738697630966e+02
2.230000000000000000e+02 5.747777391620003300e+02
2.240000000000000000e+02 6.690667318398676571e+02
2.250000000000000000e+02 7.464149345707172643e+02
2.260000000000000000e+02 8.267740790914739364e+02
2.270000000000000000e+02 9.160004982368816400e+02
2.280000000000000000e+02 1.003745267600083366e+03
2.290000000000000000e+02 1.059060021987139635e+03
2.300000000000000000e+02 1.104755831985065242e+03
2.310000000000000000e+02 1.076242767890479627e+03
2.320000000000000000e+02 9.799208879485574926e+02
2.330000000000000000e+02 8.708508544077989200e+02
2.340000000000000000e+02 7.529316566479991479e+02
2.350000000000000000e+02 5.957840436838851019e+02
2.360000000000000000e+02 4.678988275876364469e+02
2.370000000000000000e+02 3.983280022816841210e+02
2.380000000000000000e+02 3.288264029869324077e+02
2.390000000000000000e+02 2.709601443683887965e+02
2.400000000000000000e+02 2.127336925948967519e+02
2.410000000000000000e+02 1.802365854801910245e+02
2.420000000000000000e+02 1.975188601824969226e+02
2.430000000000000000e+02 1.434591171333752584e+02
2.440000000000000000e+02 1.156311004978220467e+02
2.450000000000000000e+02 1.192629444628786075e+02
2.460000000000000000e+02 1.192339726820161872e+02
2.470000000000000000e+02 7.881628859780143159e+01
2.480000000000000000e+02 9.219760775819176501e+01
2.490000000000000000e+02 8.288844837585526193e+01
2.500000000000000000e+02 6.956912239784280416e+01
2.510000000000000000e+02 9.593919794690991409e+01
2.520000000000000000e+02 7.665897830118265688e+01
2.530000000000000000e+02 4.225847000622229643e+01
2.540000000000000000e+02 4.449975310516659732e+00
2.550000000000000000e+02 4.675777816842976620e+01
2.560000000000000000e+02 4.531644676830549656e+01
2.570000000000000000e+02 7.924965378966757790e+00
2.580000000000000000e+02 2.686986471686412159e+01
2.590000000000000000e+02 6.105324096453018257e+01
2.600000000000000000e+02 3.991131123210875842e+01
2.610000000000000000e+02 1.464513974528163054e+01
2.620000000000000000e+02 5.344671728064747640e+01
2.630000000000000000e+02 6.051429957062887866e+01
2.640000000000000000e+02 5.643606639286472415e+01
2.650000000000000000e+02 8.543545733872693404e+01
2.660000000000000000e+02 1.120168092097070485e+02
2.670000000000000000e+02 1.330456046048533665e+02
2.680000000000000000e+02 1.484167829946084112e+02
2.690000000000000000e+02 1.571214652354284453e+02
2.700000000000000000e+02 1.462908401576435438e+02
2.710000000000000000e+02 1.722429644753211164e+02
2.720000000000000000e+02 1.599031112632235079e+02
2.730000000000000000e+02 1.196769150176313161e+02
2.740000000000000000e+02 1.256496614267939123e+02
2.750000000000000000e+02 1.754313869114294846e+02
2.760000000000000000e+02 1.694132949595519051e+02
2.770000000000000000e+02 1.757267341352142296e+02
2.780000000000000000e+02 2.165714874092516311e+02
2.790000000000000000e+02 2.173155087326279897e+02
2.800000000000000000e+02 1.838841952706915777e+02
2.810000000000000000e+02 1.553768373988795020e+02
2.820000000000000000e+02 1.428393149968885609e+02
2.830000000000000000e+02 1.476551164073839288e+02
2.840000000000000000e+02 1.726685065131714225e+02
2.850000000000000000e+02 1.558137734287494425e+02
2.860000000000000000e+02 1.314775946484133442e+02
2.870000000000000000e+02 1.259683687824102236e+02
2.880000000000000000e+02 1.332803563576020736e+02
2.890000000000000000e+02 1.329025274424393217e+02
2.900000000000000000e+02 1.756651273179834050e+02
2.910000000000000000e+02 1.973067280439743456e+02
2.920000000000000000e+02 1.866461529350757758e+02
2.930000000000000000e+02 2.184637300974902132e+02
2.940000000000000000e+02 1.700767130858565395e+02
2.950000000000000000e+02 1.493127169259491041e+02
2.960000000000000000e+02 1.424466362372947970e+02
2.970000000000000000e+02 9.802355394027398461e+01
2.980000000000000000e+02 3.284770583488798223e+01
2.990000000000000000e+02 2.059263552582479306e+01
3.000000000000000000e+02 3.702273740149311720e+01
3.010000000000000000e+02 6.064041094586114866e+01
3.020000000000000000e+02 8.470187355113056071e+01
3.030000000000000000e+02 7.597232843633348409e+01
3.040000000000000000e+02 7.864245582451756889e+01
3.050000000000000000e+02 1.074183824102874922e+02
3.060000000000000000e+02 1.398358283907092243e+02
3.070000000000000000e+02 1.350913722256793790e+02
3.080000000000000000e+02 1.264243413192283469e+02
3.090000000000000000e+02 1.462588533914128277e+02
3.100000000000000000e+02 1.496951903754406601e+02
3.110000000000000000e+02 1.184874159303049197e+02
3.120000000000000000e+02 1.180312810827628027e+02
3.130000000000000000e+02 9.645162747977568074e+01
3.140000000000000000e+02 8.899046235220913559e+01
3.150000000000000000e+02 1.040185729371503811e+02
3.160000000000000000e+02 1.273233448247258082e+02
3.170000000000000000e+02 1.755105606720603362e+02
3.180000000000000000e+02 1.465916023024281003e+02
3.190000000000000000e+02 1.246901257622899948e+02
3.200000000000000000e+02 1.470312322132345173e+02
3.210000000000000000e+02 1.822050703381050312e+02
3.220000000000000000e+02 9.642498092719509373e+01
3.230000000000000000e+02 4.262677358564954488e+01
3.240000000000000000e+02 2.953161093549054783e+01
3.250000000000000000e+02 1.745286331176148309e+01
3.260000000000000000e+02 3.934702520945654669e+01
3.270000000000000000e+02 1.206568879775975844e+01
3.280000000000000000e+02 7.376768057042148108e+00
3.290000000000000000e+02 2.715355091746231508e+01
3.300000000000000000e+02 8.155644859572737460e+01
3.310000000000000000e+02 4.604397983820759777e+01
3.320000000000000000e+02 4.234912313148093688e+01
3.330000000000000000e+02 6.238325878655941636e+01
3.340000000000000000e+02 6.498992530595231187e+01
3.350000000000000000e+02 2.397800392242298884e+01
3.360000000000000000e+02 1.921199219041697503e+01
3.370000000000000000e+02 1.080534990873262302e+01
3.380000000000000000e+02 3.375003253681734350e+01
3.390000000000000000e+02 7.736918142708940138e+01
3.400000000000000000e+02 9.514040136901012090e+01
3.410000000000000000e+02 1.185368000829703874e+02
3.420000000000000000e+02 1.408451060775770713e+02
3.430000000000000000e+02 1.478533810412777996e+02
3.440000000000000000e+02 1.531382459863095562e+02
3.450000000000000000e+02 1.882076247044181230e+02
3.460000000000000000e+02 2.476901655050815521e+02
3.470000000000000000e+02 2.760751391953547227e+02
3.480000000000000000e+02 2.493877342667491064e+02
3.490000000000000000e+02 2.065965582451774196e+02
3.500000000000000000e+02 2.257304780588966366e+02
3.510000000000000000e+02 1.671014865795466164e+02
3.520000000000000000e+02 1.176427184816425751e+02
3.530000000000000000e+02 1.144791763168807961e+02
3.540000000000000000e+02 1.189995126944610462e+02
3.550000000000000000e+02 7.512457745280970300e+01
3.560000000000000000e+02 3.459692753629219908e+01
3.570000000000000000e+02 5.708306215307902676e+01
3.580000000000000000e+02 1.055525946235228361e+02
3.590000000000000000e+02 1.119706432393198838e+02
3.600000000000000000e+02 3.592634644679626632e+01
3.610000000000000000e+02 7.833493708773976039e+01
3.620000000000000000e+02 1.318061977183157012e+02
3.630000000000000000e+02 1.635964462974484661e+02
3.640000000000000000e+02 1.972994439950214485e+02
3.650000000000000000e+02 2.312693107239165613e+02
3.660000000000000000e+02 2.919520264467954576e+02
3.670000000000000000e+02 3.526682253889233607e+02
3.680000000000000000e+02 3.756669070317357750e+02
3.690000000000000000e+02 3.592326636797345145e+02
3.700000000000000000e+02 4.020339929267790353e+02
3.710000000000000000e+02 4.971380005185674804e+02
3.720000000000000000e+02 5.127771920348465073e+02
3.730000000000000000e+02 4.893825004978221500e+02
3.740000000000000000e+02 5.698922237917422535e+02
3.750000000000000000e+02 6.662643069072789785e+02
3.760000000000000000e+02 7.166988272915809830e+02
3.770000000000000000e+02 7.750221753578083508e+02
3.780000000000000000e+02 8.850502405102647572e+02
3.790000000000000000e+02 1.028165447532142707e+03
3.800000000000000000e+02 1.122292850653391042e+03
3.810000000000000000e+02 1.206103765401368264e+03
3.820000000000000000e+02 1.309257373703857184e+03
3.830000000000000000e+02 1.384359395146235329e+03
3.840000000000000000e+02 1.357015874092511922e+03
3.850000000000000000e+02 1.306511832849439315e+03
3.860000000000000000e+02 1.220350499066582415e+03
3.870000000000000000e+02 1.082266154739679450e+03
3.880000000000000000e+02 9.138297571043311791e+02
3.890000000000000000e+02 7.630175070317322934e+02
3.900000000000000000e+02 5.846372326695684478e+02
3.910000000000000000e+02 4.883707280647179232e+02
3.920000000000000000e+02 4.380086484131927023e+02
3.930000000000000000e+02 3.775442727442421642e+02
3.940000000000000000e+02 3.031096918481652551e+02
3.950000000000000000e+02 2.296534372121978436e+02
3.960000000000000000e+02 1.803841736361759445e+02
3.970000000000000000e+02 1.585379049367351456e+02
3.980000000000000000e+02 1.423811060568349660e+02
3.990000000000000000e+02 1.046239049159929095e+02
4.000000000000000000e+02 1.357720134411949573e+02
4.010000000000000000e+02 1.497030574362165680e+02
4.020000000000000000e+02 1.425165557030278478e+02
4.030000000000000000e+02 1.128428396245580814e+02
4.040000000000000000e+02 4.540718973864338182e+01
4.050000000000000000e+02 8.500639444836191672e+01
4.060000000000000000e+02 5.146503554449110140e+01
4.070000000000000000e+02 4.838253838208001412e+01
4.080000000000000000e+02 8.601702504769835400e+01
4.090000000000000000e+02 2.049824194150499679e+01
4.100000000000000000e+02 3.578663022401983795e+01
4.110000000000000000e+02 3.517536760058067102e+01
4.120000000000000000e+02 3.656459414436834976e+01
4.130000000000000000e+02 2.983563144990699811e+01
4.140000000000000000e+02 6.248496145997600948e+00
4.150000000000000000e+02 6.043504055590188884e+00
4.160000000000000000e+02 2.573498830947886518e+01
4.170000000000000000e+02 2.813817176104520357e+01
4.180000000000000000e+02 5.472051383945236935e+00
4.190000000000000000e+02 3.737118198713945816e+01
4.200000000000000000e+02 5.719260403650724811e+01
4.210000000000000000e+02 9.795872529558222652e+01
4.220000000000000000e+02 1.085862233354074817e+02
4.230000000000000000e+02 9.104364160547608265e+01
4.240000000000000000e+02 1.062190183696331758e+02
4.250000000000000000e+02 1.240192242895666794e+02
4.260000000000000000e+02 1.464076420659607720e+02
4.270000000000000000e+02 1.179371052893576461e+02
4.280000000000000000e+02 6.693432790750755146e+01
4.290000000000000000e+02 8.176121218004537639e+01
4.300000000000000000e+02 9.359832386641791402e+01
4.310000000000000000e+02 7.116237666113698879e+01
4.320000000000000000e+02 7.504166116365860262e+01
4.330000000000000000e+02 1.036430636797344533e+02
4.340000000000000000e+02 7.881584544379977331e+01
4.350000000000000000e+02 1.590339875793405966e+01
4.360000000000000000e+02 1.351750752333544625e+01
4.370000000000000000e+02 3.231734707175453991e+01
4.380000000000000000e+02 4.381668795063279020e+01
4.390000000000000000e+02 6.198577995436639299e+01
4.400000000000000000e+02 7.867001848786556195e+01
4.410000000000000000e+02 8.439507079651528443e+01
4.420000000000000000e+02 7.066164329184793758e+01
4.430000000000000000e+02 7.169866052882635188e+01
4.440000000000000000e+02 1.079677883841534083e+02
4.450000000000000000e+02 1.192313248288731558e+02
4.460000000000000000e+02 5.743346679800878007e+01
4.470000000000000000e+02 1.817299652769152019e+01
4.480000000000000000e+02 1.236269584318626791e+01
4.490000000000000000e+02 1.944330276856093320e+01
4.500000000000000000e+02 5.664287554449254003e+01
4.510000000000000000e+02 4.272494530387934475e+01
4.520000000000000000e+02 4.295650385732054133e+01
4.530000000000000000e+02 5.196235396805641926e+01
4.540000000000000000e+02 6.239968425015533882e+01
4.550000000000000000e+02 1.102886176104543381e+02
4.560000000000000000e+02 1.014616235345362298e+02
4.570000000000000000e+02 5.677579314042732506e+01
4.580000000000000000e+02 6.578648618129162173e+01
4.590000000000000000e+02 1.228100561294338746e+02
4.600000000000000000e+02 1.232414888819747318e+02
4.610000000000000000e+02 1.392038286455091622e+02
4.620000000000000000e+02 1.911981239369437162e+02
4.630000000000000000e+02 1.730276446795256788e+02
4.640000000000000000e+02 1.122764736154329483e+02
4.650000000000000000e+02 1.107366477494295651e+02
4.660000000000000000e+02 9.765293827006816230e+01
4.670000000000000000e+02 1.059466712756687627e+02
4.680000000000000000e+02 1.150417011200994466e+02
4.690000000000000000e+02 1.093326902115311299e+02
4.700000000000000000e+02 8.890049654428538872e+01
4.710000000000000000e+02 9.932809747355324248e+01
4.720000000000000000e+02 7.613580524263802829e+01
4.730000000000000000e+02 9.522707499066615355e+01
4.740000000000000000e+02 1.378383185023853912e+02
4.750000000000000000e+02 1.372396829531312790e+02
4.760000000000000000e+02 9.316095989421232559e+01
4.770000000000000000e+02 8.110761851897943586e+01
4.780000000000000000e+02 4.427547030070397227e+01
4.790000000000000000e+02 4.047428586600376832e+01
4.800000000000000000e+02 8.368525914540600752e+01
4.810000000000000000e+02 8.892346019493983533e+01
4.820000000000000000e+02 9.267922197261988515e+01
4.830000000000000000e+02 8.370167109728252797e+01
4.840000000000000000e+02 8.976459868906840711e+01
4.850000000000000000e+02 1.011400076996477253e+02
4.860000000000000000e+02 8.725432747977583858e+01
4.870000000000000000e+02 1.017124472308649530e+02
4.880000000000000000e+02 8.780638772246437895e+01
4.890000000000000000e+02 8.691912896909323649e+01
4.900000000000000000e+02 7.968804493258635091e+01
4.910000000000000000e+02 4.435287354075916255e+01
4.920000000000000000e+02 6.121495069072787487e+01
4.930000000000000000e+02 1.342429567309699223e+02
4.940000000000000000e+02 1.601619271935283280e+02
4.950000000000000000e+02 1.539666257622899650e+02
4.960000000000000000e+02 1.469518581829489392e+02
4.970000000000000000e+02 1.247750904169262611e+02
4.980000000000000000e+02 1.508887099543758836e+02
4.990000000000000000e+02 1.428815145820374255e+02
5.000000000000000000e+02 1.672732352831382343e+02
5.010000000000000000e+02 1.933513291787634216e+02
5.020000000000000000e+02 1.382561299522921558e+02
5.030000000000000000e+02 1.854759942750457640e+02
5.040000000000000000e+02 1.461671874740778492e+02
5.050000000000000000e+02 1.665265162414429483e+02
5.060000000000000000e+02 1.983862387471482123e+02
5.070000000000000000e+02 1.498552655122354906e+02
5.080000000000000000e+02 1.657918952914333204e+02
5.090000000000000000e+02 1.509740091474798476e+02
5.100000000000000000e+02 1.412184495955193313e+02
5.110000000000000000e+02 8.937802130885594920e+01
5.120000000000000000e+02 1.229587923459861365e+01
5.130000000000000000e+02 1.971594624974075316e+01
5.140000000000000000e+02 9.474289017423940251e+00
5.150000000000000000e+02 1.686732246214453923e+01
5.160000000000000000e+02 1.135518134204523122e+01
5.170000000000000000e+02 1.861305273802111415e+01
5.180000000000000000e+02 6.199755324828880276e+01
5.190000000000000000e+02 1.738334253267002794e+01
5.200000000000000000e+02 3.486028174528337331e+01
5.210000000000000000e+02 8.924400476249837766e+01
5.220000000000000000e+02 9.504210578510637220e+01
5.230000000000000000e+02 7.599076174237720238e+01
5.240000000000000000e+02 8.457773041684041004e+01
5.250000000000000000e+02 1.177335609831981031e+02
5.260000000000000000e+02 1.021212109105981227e+02
5.270000000000000000e+02 9.737674318540146601e+01
5.280000000000000000e+02 1.144857722464221155e+02
5.290000000000000000e+02 1.037436807301388910e+02
5.300000000000000000e+02 1.126212941725425054e+02
5.310000000000000000e+02 7.176492138767891049e+01
5.320000000000000000e+02 2.411106846297454354e+01
5.330000000000000000e+02 4.091805598921727238e+01
5.340000000000000000e+02 1.051067552582461531e+02
5.350000000000000000e+02 8.978541578718082405e+01
5.360000000000000000e+02 1.045443237295173731e+02
5.370000000000000000e+02 1.181133624144371339e+02
5.380000000000000000e+02 1.294845299108071686e+02
5.390000000000000000e+02 1.209040584318586582e+02
5.400000000000000000e+02 7.648828692180003941e+01
5.410000000000000000e+02 8.310430991910435239e+01
5.420000000000000000e+02 1.126765965152452225e+02
5.430000000000000000e+02 7.337243580792168984e+01
5.440000000000000000e+02 4.391362105994656417e+01
5.450000000000000000e+02 7.203988693632030049e+01
5.460000000000000000e+02 3.883691312383346883e+01
5.470000000000000000e+02 4.682129500725979909e+01
5.480000000000000000e+02 1.378033990250899876e+01
5.490000000000000000e+02 2.773422436424034032e+01
5.500000000000000000e+02 1.622540995437654487e+01
5.510000000000000000e+02 9.515984450528823402e+01
5.520000000000000000e+02 2.487324764986501435e+01
5.530000000000000000e+02 7.608804565533037589e+01
5.540000000000000000e+02 9.553136674963626263e+01
5.550000000000000000e+02 5.166242915992497586e+01
5.560000000000000000e+02 2.806732439651611699e+01
5.570000000000000000e+02 4.576813549263629000e+01
5.580000000000000000e+02 9.829578064716734787e+00
5.590000000000000000e+02 1.660092634798840194e+01
5.600000000000000000e+02 2.178997842003681029e+01
5.610000000000000000e+02 5.042143702136486638e+01
5.620000000000000000e+02 2.373413258813734927e+01
5.630000000000000000e+02 1.698826774528107109e+01
5.640000000000000000e+02 2.135468006845061240e+01
5.650000000000000000e+02 3.990560443061623630e+01
5.660000000000000000e+02 3.416222309686778402e+01
5.670000000000000000e+02 2.074743442439284991e+01
5.680000000000000000e+02 7.568942742169694782e+01
5.690000000000000000e+02 7.774553665836965877e+01
5.700000000000000000e+02 6.656509282306583941e+01
5.710000000000000000e+02 8.358867060360931589e+01
5.720000000000000000e+02 1.025827262186268314e+02
5.730000000000000000e+02 9.923173311138765484e+01
5.740000000000000000e+02 1.025301799626633539e+02
5.750000000000000000e+02 7.615827430616086247e+01
5.760000000000000000e+02 4.217971307612599929e+01
5.770000000000000000e+02 2.413238494503215037e+01
5.780000000000000000e+02 2.372628567517113396e+01
5.790000000000000000e+02 1.506859452841204927e+01
5.800000000000000000e+02 3.360883891101407528e+01
5.810000000000000000e+02 3.856736658784534910e+01
5.820000000000000000e+02 2.578468655018500399e+01
5.830000000000000000e+02 7.673702395146230515e+01
5.840000000000000000e+02 5.523399671437572067e+01
5.850000000000000000e+02 2.460284605143079872e+01
5.860000000000000000e+02 9.184321295996565482e+01
5.870000000000000000e+02 6.549554064717014512e+01
5.880000000000000000e+02 8.052622008296788181e+01
5.890000000000000000e+02 1.634790347438247693e+02
5.900000000000000000e+02 2.070562118440196286e+02
5.910000000000000000e+02 8.175164975731273387e+01
5.920000000000000000e+02 8.715413662173303067e+01
5.930000000000000000e+02 1.084674452810619982e+02
5.940000000000000000e+02 8.893927605061224995e+01
5.950000000000000000e+02 3.984909584819567385e+01
5.960000000000000000e+02 1.555310486621062438e+01
5.970000000000000000e+02 4.355646338311572663e+01
5.980000000000000000e+02 1.422463968581690885e+01
5.990000000000000000e+02 1.725568002281755398e+01
6.000000000000000000e+02 1.310648492843766277e+01
6.010000000000000000e+02 5.076562470344137523e+01
6.020000000000000000e+02 5.851272967848961315e+01
6.030000000000000000e+02 6.581721849823613013e+01
6.040000000000000000e+02 1.184023973864331225e+02
6.050000000000000000e+02 1.352016764779094444e+02
6.060000000000000000e+02 1.343060824932582307e+02
6.070000000000000000e+02 1.511221674341419998e+02
6.080000000000000000e+02 1.588309876581628828e+02
6.090000000000000000e+02 8.742211775357876036e+01
6.100000000000000000e+02 1.215592326073435885e+02
6.110000000000000000e+02 1.315125329807090679e+02
6.120000000000000000e+02 8.720162680979009906e+01
6.130000000000000000e+02 6.274188280439751964e+01
6.140000000000000000e+02 9.094183649657799151e+01
6.150000000000000000e+02 6.890014648205672643e+01
6.160000000000000000e+02 3.502454945239389161e+01
6.170000000000000000e+02 1.299503596058866606e+01
6.180000000000000000e+02 3.280391581916106691e+00
6.190000000000000000e+02 1.045405555569153933e+01
6.200000000000000000e+02 6.368172723916171662e+01
6.210000000000000000e+02 5.145678489423419677e+01
6.220000000000000000e+02 7.182813576228927843e+01
6.230000000000000000e+02 8.520906273179861046e+01
6.240000000000000000e+02 8.377504595603474513e+01
6.250000000000000000e+02 1.010627452354283946e+02
6.260000000000000000e+02 1.171835176934246192e+02
6.270000000000000000e+02 1.016809031542924799e+02
6.280000000000000000e+02 1.297960634723099815e+02
6.290000000000000000e+02 1.384153971375230299e+02
6.300000000000000000e+02 8.435829068435995737e+01
6.310000000000000000e+02 1.810705822858399827e+01
6.320000000000000000e+02 3.661986597386322018e+01
6.330000000000000000e+02 2.010531356565219241e+01
6.340000000000000000e+02 1.330614714125661457e+01
6.350000000000000000e+02 2.131405612113671566e+01
6.360000000000000000e+02 1.156194080854685247e+01
6.370000000000000000e+02 1.242114638830020645e+01
6.380000000000000000e+02 9.644275649865326727e+01
6.390000000000000000e+02 1.343045828251399598e+02
6.400000000000000000e+02 1.225779535988385334e+02
6.410000000000000000e+02 1.249798384567515939e+02
6.420000000000000000e+02 1.431281239576852613e+02
6.430000000000000000e+02 1.349788029247042402e+02
6.440000000000000000e+02 1.256771082330977976e+02
6.450000000000000000e+02 8.554808961003904244e+01
6.460000000000000000e+02 1.240278605476052576e+02
6.470000000000000000e+02 1.353090397345491454e+02
6.480000000000000000e+02 8.723347314250077034e+01
6.490000000000000000e+02 5.733886911221696181e+01
6.500000000000000000e+02 3.568778850062221153e+01
6.510000000000000000e+02 6.511515878655941947e+01
6.520000000000000000e+02 3.870025492428891312e+01
6.530000000000000000e+02 5.264019653255896714e+00
6.540000000000000000e+02 7.126259195602552943e+00
6.550000000000000000e+02 4.076167941505931935e+01
6.560000000000000000e+02 5.917274389464989781e+01
6.570000000000000000e+02 1.034933220078827105e+02
6.580000000000000000e+02 6.246418578095821061e+01
6.590000000000000000e+02 6.364910331674056465e+01
6.600000000000000000e+02 1.099364794648412555e+02
6.610000000000000000e+02 1.071975759178593250e+02
6.620000000000000000e+02 1.373658504874513824e+02
6.630000000000000000e+02 1.898559971375235307e+02
6.640000000000000000e+02 2.109802402613565846e+02
6.650000000000000000e+02 1.930374044803979245e+02
6.660000000000000000e+02 1.776627666666666698e+02
6.670000000000000000e+02 1.860000445550715540e+02
6.680000000000000000e+02 1.746116816842978210e+02
6.690000000000000000e+02 1.692337964530180443e+02
6.700000000000000000e+02 2.205257468782399997e+02
6.710000000000000000e+02 2.466958442439327825e+02
6.720000000000000000e+02 2.478874194358018315e+02
6.730000000000000000e+02 2.748562679593525218e+02
6.740000000000000000e+02 3.016525414436838446e+02
6.750000000000000000e+02 3.045213079651520616e+02
6.760000000000000000e+02 4.108980518457057656e+02
6.770000000000000000e+02 4.533658761460280857e+02
6.780000000000000000e+02 4.674160921593016838e+02
6.790000000000000000e+02 5.407357528618825881e+02
6.800000000000000000e+02 5.619800133789668735e+02
6.810000000000000000e+02 5.858385751503832353e+02
6.820000000000000000e+02 6.316835089174612676e+02
6.830000000000000000e+02 6.499901775980086995e+02
6.840000000000000000e+02 6.822855813938999745e+02
6.850000000000000000e+02 7.503451313835304290e+02
6.860000000000000000e+02 7.905839697573117064e+02
6.870000000000000000e+02 8.182968499066583945e+02
6.880000000000000000e+02 8.202916386434351352e+02
6.890000000000000000e+02 8.093717155776807886e+02
6.900000000000000000e+02 8.355639973656932398e+02
6.910000000000000000e+02 8.851876349927398451e+02
6.920000000000000000e+02 8.691943659614198623e+02
6.930000000000000000e+02 8.036901245177376722e+02
6.940000000000000000e+02 7.120800004563387802e+02
6.950000000000000000e+02 6.375182320058098639e+02
6.960000000000000000e+02 5.370201495332969444e+02
6.970000000000000000e+02 4.293078874299959580e+02
6.980000000000000000e+02 3.769575453432900076e+02
6.990000000000000000e+02 3.697434508502699373e+02
7.000000000000000000e+02 3.507535254096663380e+02
7.010000000000000000e+02 2.943378481642818087e+02
7.020000000000000000e+02 2.421264305682289830e+02
7.030000000000000000e+02 2.476178007882189434e+02
7.040000000000000000e+02 2.809209912051441052e+02
7.050000000000000000e+02 2.608850723766082069e+02
7.060000000000000000e+02 2.320443644679519934e+02
7.070000000000000000e+02 2.364129431860614829e+02
7.080000000000000000e+02 2.348480323309834148e+02
7.090000000000000000e+02 2.115052691765206134e+02
7.100000000000000000e+02 1.945545561294337631e+02
7.110000000000000000e+02 2.054426401991303521e+02
7.120000000000000000e+02 1.580307913088576584e+02
7.130000000000000000e+02 1.555186244347642912e+02
7.140000000000000000e+02 1.508247829081104499e+02
7.150000000000000000e+02 1.636853261356559415e+02
7.160000000000000000e+02 1.828412192906038172e+02
7.170000000000000000e+02 1.531123416925944412e+02
7.180000000000000000e+02 1.056472602779505934e+02
7.190000000000000000e+02 1.495003733042940439e+02
7.200000000000000000e+02 1.331832300560032820e+02
7.210000000000000000e+02 9.606550058908869971e+01
7.220000000000000000e+02 1.058930618377939794e+02
7.230000000000000000e+02 1.470800479361109581e+02
7.240000000000000000e+02 1.663440561916618776e+02
7.250000000000000000e+02 1.323825451265021798e+02
7.260000000000000000e+02 1.090761382493263909e+02
7.270000000000000000e+02 1.012942687326283533e+02
7.280000000000000000e+02 7.951186822065332649e+01
7.290000000000000000e+02 5.384217321095200504e+01
7.300000000000000000e+02 6.997138611491325833e+01
7.310000000000000000e+02 9.822495369141421406e+01
7.320000000000000000e+02 8.353120099564399936e+01
7.330000000000000000e+02 4.480403539514620803e+01
7.340000000000000000e+02 3.479144880132749051e+01
7.350000000000000000e+02 6.177392372951747745e+01
7.360000000000000000e+02 9.895439081518442492e+01
7.370000000000000000e+02 1.258627934467031224e+02
7.380000000000000000e+02 8.297160738643214017e+01
7.390000000000000000e+02 3.725851795892874208e+01
7.400000000000000000e+02 2.047756363617465425e+01
7.410000000000000000e+02 6.063212276498990860e+01
7.420000000000000000e+02 9.744459452395587107e+01
7.430000000000000000e+02 3.034209784443238789e+01
7.440000000000000000e+02 2.055234447002704457e+01
7.450000000000000000e+02 2.772695849616128072e+01
7.460000000000000000e+02 3.452708199564364122e+01
7.470000000000000000e+02 2.192174593279447947e+01
7.480000000000000000e+02 6.705613798796917990e+01
7.490000000000000000e+02 4.590922526446732377e+01
7.500000000000000000e+02 7.516756577680585139e+00
7.510000000000000000e+02 3.862939608587479512e+01
7.520000000000000000e+02 2.439703251400039008e+01
7.530000000000000000e+02 3.513826069695088261e+00
7.540000000000000000e+02 1.147354785773557673e+01
7.550000000000000000e+02 9.029534319435294165e+00
7.560000000000000000e+02 1.337732838830110182e+01
7.570000000000000000e+02 6.929811877229790085e+00
7.580000000000000000e+02 4.460690419622524416e+01
7.590000000000000000e+02 2.542537561916735811e+01
7.600000000000000000e+02 2.857205055163658258e+01
7.610000000000000000e+02 1.760166119726153156e+01
7.620000000000000000e+02 7.515387191453990567e+01
7.630000000000000000e+02 1.076366796847785423e+02
7.640000000000000000e+02 1.013973780958306889e+02
7.650000000000000000e+02 1.486416560672062701e+02
7.660000000000000000e+02 1.680893784069693879e+02
7.670000000000000000e+02 1.549480548019080572e+02
7.680000000000000000e+02 1.476254489110143879e+02
7.690000000000000000e+02 1.564843913088568002e+02
7.700000000000000000e+02 1.407757429993776839e+02
7.710000000000000000e+02 1.373967591371084893e+02
7.720000000000000000e+02 7.825334694461614049e+01
7.730000000000000000e+02 2.906365311968455956e+01
7.740000000000000000e+02 4.278315768512734962e+01
7.750000000000000000e+02 9.108659740510316283e+01
7.760000000000000000e+02 1.140382741962248616e+02
7.770000000000000000e+02 1.008627548848787825e+02
7.780000000000000000e+02 8.504356107861433145e+01
7.790000000000000000e+02 7.637707331673934164e+01
7.800000000000000000e+02 1.182541572791366633e+02
7.810000000000000000e+02 1.897821154324831241e+02
7.820000000000000000e+02 2.397329400539306334e+02
7.830000000000000000e+02 2.523942774782246659e+02
7.840000000000000000e+02 2.652653404480398649e+02
7.850000000000000000e+02 2.139651199128817325e+02
7.860000000000000000e+02 1.795149001451984248e+02
7.870000000000000000e+02 1.635673512134416683e+02
7.880000000000000000e+02 1.420711734909773156e+02
7.890000000000000000e+02 9.504294046463553514e+01
7.900000000000000000e+02 2.165565857498641478e+01
7.910000000000000000e+02 2.128298381041276599e+01
7.920000000000000000e+02 1.015787858120685883e+01
7.930000000000000000e+02 1.007676709083412625e+01
7.940000000000000000e+02 2.611665158265903486e+01
7.950000000000000000e+02 7.781374898568738274e+01
7.960000000000000000e+02 1.004961575694731550e+02
7.970000000000000000e+02 5.754477833229587702e+01
7.980000000000000000e+02 6.001565143331283281e+01
7.990000000000000000e+02 8.165175224180794089e+01
8.000000000000000000e+02 7.108256802945534503e+01
8.010000000000000000e+02 2.488930858742777019e+01
8.020000000000000000e+02 6.875926863956355106e+00
8.030000000000000000e+02 5.248924529765442770e+01
8.040000000000000000e+02 8.626120479568470500e+01
8.050000000000000000e+02 7.062098268768197329e+01
8.060000000000000000e+02 5.769993188550162699e+01
8.070000000000000000e+02 2.144109083177834663e+01
8.080000000000000000e+02 3.449016914333063966e+01
8.090000000000000000e+02 9.275671428541751595e+01
8.100000000000000000e+02 1.275714146857495450e+02
8.110000000000000000e+02 1.430205245799626823e+02
8.120000000000000000e+02 1.268054379174441237e+02
8.130000000000000000e+02 5.707501468160064917e+01
8.140000000000000000e+02 3.063075850031126990e+01
8.150000000000000000e+02 3.788268512134443711e+01
8.160000000000000000e+02 3.863906300352608980e+01
8.170000000000000000e+02 3.717216345156601420e+01
8.180000000000000000e+02 3.602721271312976370e+01
8.190000000000000000e+02 9.769259305681293526e+00
8.200000000000000000e+02 6.239535732420877778e+00
8.210000000000000000e+02 2.931977926363703091e+01
8.220000000000000000e+02 2.198031394297142782e+01
8.230000000000000000e+02 1.131388288798939001e+01
8.240000000000000000e+02 4.047667910392065949e+01
8.250000000000000000e+02 1.611898168394854736e+01
8.260000000000000000e+02 3.953973709603829434e+01
8.270000000000000000e+02 3.518472878033596629e+01
8.280000000000000000e+02 1.559084173372010618e+01
8.290000000000000000e+02 5.961688358432119372e+01
8.300000000000000000e+02 8.240462700891849579e+01
8.310000000000000000e+02 4.636601673579419725e+01
8.320000000000000000e+02 8.551789605891042356e+01
8.330000000000000000e+02 6.014554148102282483e+01
8.340000000000000000e+02 1.340600419415036697e+02
8.350000000000000000e+02 1.341122088156003826e+02
8.360000000000000000e+02 7.851458190209309862e+01
8.370000000000000000e+02 9.533060684712445720e+01
8.380000000000000000e+02 1.575246740510275743e+02
8.390000000000000000e+02 1.182944680771622643e+02
8.400000000000000000e+02 1.498218911014312198e+02
8.410000000000000000e+02 1.364826859157851118e+02
8.420000000000000000e+02 1.673059517112630772e+02
8.430000000000000000e+02 2.018365900435599656e+02
8.440000000000000000e+02 1.920260404895244051e+02
8.450000000000000000e+02 1.490171253059523337e+02
8.460000000000000000e+02 1.179215793611287353e+02
8.470000000000000000e+02 1.241298688238948245e+02
8.480000000000000000e+02 9.225592643716181840e+01
8.490000000000000000e+02 3.683369362787638579e+01
8.500000000000000000e+02 8.951034365691640460e+00
8.510000000000000000e+02 2.098248503318222902e+01
8.520000000000000000e+02 4.579088282513971109e+01
8.530000000000000000e+02 2.587795997510735546e+01
8.540000000000000000e+02 2.673667206968055510e+01
8.550000000000000000e+02 5.246053080066303664e+01
8.560000000000000000e+02 1.141776834474172233e+02
8.570000000000000000e+02 8.727072054748992969e+01
8.580000000000000000e+02 1.176122953515879601e+02
8.590000000000000000e+02 1.711632671644889570e+02
8.600000000000000000e+02 1.581064540551758171e+02
8.610000000000000000e+02 1.695121128189166200e+02
8.620000000000000000e+02 1.397987121551544760e+02
8.630000000000000000e+02 1.496701675793407844e+02
8.640000000000000000e+02 1.611412802945447140e+02
8.650000000000000000e+02 1.474482189794646558e+02
8.660000000000000000e+02 1.381258952706909611e+02
8.670000000000000000e+02 1.344686779921174207e+02
8.680000000000000000e+02 1.331631911429165598e+02
8.690000000000000000e+02 2.086175455714575833e+02
8.700000000000000000e+02 1.189367854387049448e+02
8.710000000000000000e+02 1.593001003733664049e+02
8.720000000000000000e+02 2.154095425637837877e+02
8.730000000000000000e+02 1.865880914540548190e+02
8.740000000000000000e+02 1.349269855039402728e+02
8.750000000000000000e+02 1.289012436216549133e+02
8.760000000000000000e+02 1.065144763534536452e+02
8.770000000000000000e+02 1.330283991289921346e+02
8.780000000000000000e+02 7.609836654428491443e+01
8.790000000000000000e+02 1.680354319228353077e+01
8.800000000000000000e+02 2.914969223351308614e+01
8.810000000000000000e+02 2.223701466376247282e+01
8.820000000000000000e+02 3.041445801286075223e+01
8.830000000000000000e+02 3.956654433430121287e+01
8.840000000000000000e+02 3.512221183571871563e+01
8.850000000000000000e+02 8.819868735946832317e+01
8.860000000000000000e+02 9.564046444628780819e+01
8.870000000000000000e+02 5.895296326695701339e+01
8.880000000000000000e+02 2.461704907280647348e+01
8.890000000000000000e+02 9.943129772246422249e+00
8.900000000000000000e+02 2.628370496577398185e+01
8.910000000000000000e+02 8.358983483717095453e+01
8.920000000000000000e+02 6.901092510267589830e+01
8.930000000000000000e+02 5.105999320472935921e+01
8.940000000000000000e+02 8.395119373158985354e+01
8.950000000000000000e+02 8.040412602364683892e+01
8.960000000000000000e+02 6.777183065753978042e+01
8.970000000000000000e+02 1.104784771312986749e+02
8.980000000000000000e+02 1.712598841319224050e+02
8.990000000000000000e+02 1.568750504044809873e+02
9.000000000000000000e+02 1.136694751140598214e+02
9.010000000000000000e+02 1.570111555071559906e+02
9.020000000000000000e+02 1.720345410080896045e+02
9.030000000000000000e+02 2.015022921609277091e+02
9.040000000000000000e+02 2.086644180045623216e+02
9.050000000000000000e+02 1.803057467123007029e+02
9.060000000000000000e+02 1.913327391124023222e+02
9.070000000000000000e+02 1.635926415681390722e+02
9.080000000000000000e+02 2.178782105579742847e+02
9.090000000000000000e+02 1.156836569514758537e+02
9.100000000000000000e+02 1.141956486289129202e+02
9.110000000000000000e+02 1.318769818294966854e+02
9.120000000000000000e+02 1.268899952716710686e+02
9.130000000000000000e+02 1.349200445758148135e+02
9.140000000000000000e+02 8.855909727027439260e+01
9.150000000000000000e+02 1.272785851897946969e+02
9.160000000000000000e+02 1.069447627753580434e+02
9.170000000000000000e+02 9.755304365069476091e+01
9.180000000000000000e+02 1.221647093756485702e+02
9.190000000000000000e+02 1.162886718937975701e+02
9.200000000000000000e+02 1.274593332296211941e+02
9.210000000000000000e+02 1.632330552582434393e+02
9.220000000000000000e+02 9.306042282721276138e+01
9.230000000000000000e+02 9.252063339141272991e+01
9.240000000000000000e+02 9.033988896909370681e+01
9.250000000000000000e+02 9.868449739265662402e+01
9.260000000000000000e+02 6.159902468989540836e+01
9.270000000000000000e+02 5.965424826176935369e+01
9.280000000000000000e+02 1.168580889856851002e+02
9.290000000000000000e+02 1.503071331812539029e+02
9.300000000000000000e+02 1.132869605476047212e+02
9.310000000000000000e+02 9.664664732420648363e+01
9.320000000000000000e+02 1.116429691206966623e+02
9.330000000000000000e+02 1.132570506119061946e+02
9.340000000000000000e+02 7.388391327317968660e+01
9.350000000000000000e+02 7.571937477395371729e+01
9.360000000000000000e+02 1.084155187305541119e+02
9.370000000000000000e+02 9.095902228168341708e+01
9.380000000000000000e+02 4.332847807548511554e+01
9.390000000000000000e+02 5.212611971374584208e+00
9.400000000000000000e+02 2.301008332711242588e+01
9.410000000000000000e+02 6.048730032980558491e+01
9.420000000000000000e+02 9.330713149761351133e+01
9.430000000000000000e+02 1.054764659614184836e+02
9.440000000000000000e+02 8.994027094586247983e+01
9.450000000000000000e+02 8.132596026135564671e+01
9.460000000000000000e+02 1.031242402862480816e+02
9.470000000000000000e+02 7.614542674963702495e+01
9.480000000000000000e+02 9.349519237087731938e+01
9.490000000000000000e+02 1.330349539722047894e+02
9.500000000000000000e+02 9.162841320887628171e+01
9.510000000000000000e+02 5.592336391619996050e+01
9.520000000000000000e+02 4.124689804604798127e+01
9.530000000000000000e+02 1.762498650902253772e+01
9.540000000000000000e+02 2.650133903754403519e+01
9.550000000000000000e+02 3.202862962256477175e+01
9.560000000000000000e+02 8.069490897946458574e+01
9.570000000000000000e+02 4.052327248288560213e+01
9.580000000000000000e+02 1.310117559104084073e+01
9.590000000000000000e+02 4.755587122588968541e+00
9.600000000000000000e+02 8.382547847335048985e+00
9.610000000000000000e+02 3.497540892368449050e+01
9.620000000000000000e+02 4.742612217797167773e+01
9.630000000000000000e+02 1.203983974175473470e+01
9.640000000000000000e+02 7.582551327250143025e+00
9.650000000000000000e+02 4.492488678489998222e+01
9.660000000000000000e+02 6.959022685127584396e+01
9.670000000000000000e+02 5.105938970136760702e+01
9.680000000000000000e+02 4.473647092304551620e+01
9.690000000000000000e+02 4.823557433312537768e+01
9.700000000000000000e+02 4.067081114499248429e+01
9.710000000000000000e+02 8.204913406969502887e+01
9.720000000000000000e+02 5.835138114084166716e+01
9.730000000000000000e+02 2.104588277328281976e+01
9.740000000000000000e+02 1.870415822858340960e+01
9.750000000000000000e+02 4.650115775357613224e+00
9.760000000000000000e+02 2.289725695332829147e+01
9.770000000000000000e+02 1.267897836755965457e+01
9.780000000000000000e+02 1.730238139805007336e+01
9.790000000000000000e+02 4.555752311553654010e+01
9.800000000000000000e+02 6.000282214685758930e+01
9.810000000000000000e+02 1.114584301534634108e+02
9.820000000000000000e+02 2.016626143775942523e+02
9.830000000000000000e+02 1.948692586185435687e+02
9.840000000000000000e+02 1.570761766023647397e+02
9.850000000000000000e+02 1.372403560464636030e+02
9.860000000000000000e+02 9.871277320058057114e+01
9.870000000000000000e+02 6.740928698402768759e+01
9.880000000000000000e+02 1.313564052893588325e+02
9.890000000000000000e+02 9.396917310516496968e+01
9.900000000000000000e+02 7.738647817257844963e+01
9.910000000000000000e+02 1.886030644887078722e+01
9.920000000000000000e+02 8.045229742584453447e+01
9.930000000000000000e+02 1.203313288736777906e+02
9.940000000000000000e+02 9.695135724595647275e+01
9.950000000000000000e+02 9.531027167392653610e+01
9.960000000000000000e+02 1.375674062020326005e+02
9.970000000000000000e+02 1.772744103276663168e+02
9.980000000000000000e+02 1.073586544741758786e+02
9.990000000000000000e+02 1.278801974901474097e+02
1.000000000000000000e+03 8.906579980070779357e+01
1.001000000000000000e+03 1.501541682572533176e+01
1.002000000000000000e+03 6.139462576762934987e+01
1.003000000000000000e+03 1.169736099585049658e+02
1.004000000000000000e+03 7.024097029045711338e+01
1.005000000000000000e+03 6.884969740663916582e+01
1.006000000000000000e+03 6.784753329875518091e+01
1.007000000000000000e+03 1.133163916390018642e+02
1.008000000000000000e+03 1.001277491701245168e+02
1.009000000000000000e+03 1.339757717842317106e+02
1.010000000000000000e+03 1.360103941908708691e+02
1.011000000000000000e+03 1.004160696680503833e+02
1.012000000000000000e+03 1.049182817427389551e+02
1.013000000000000000e+03 1.328819975155279280e+02
1.014000000000000000e+03 9.052960406639081725e+01
1.015000000000000000e+03 7.990086136929420491e+01
1.016000000000000000e+03 5.366168143153551284e+01
1.017000000000000000e+03 8.989883327121980017e+01
1.018000000000000000e+03 7.840029925311206682e+01
1.019000000000000000e+03 1.104562804979225206e+02
1.020000000000000000e+03 1.394730614107884037e+02
1.021000000000000000e+03 1.098552535403754433e+02
1.022000000000000000e+03 8.134722064315478463e+01
1.023000000000000000e+03 1.320557307053931595e+02
1.024000000000000000e+03 1.787539072614107170e+02
1.025000000000000000e+03 1.637605828157350061e+02
1.026000000000000000e+03 1.834034871369304938e+02
1.027000000000000000e+03 1.731616427385919508e+02
1.028000000000000000e+03 1.488863443983409525e+02
1.029000000000000000e+03 9.397803933609723970e+01
1.030000000000000000e+03 1.280735374481255064e+02
1.031000000000000000e+03 2.312672004149370650e+02
1.032000000000000000e+03 1.671178327800826082e+02
1.033000000000000000e+03 1.258564950207450721e+02
1.034000000000000000e+03 1.296226066390036351e+02
1.035000000000000000e+03 9.988201908713737964e+01
1.036000000000000000e+03 8.125898215767821853e+01
1.037000000000000000e+03 1.742998333333403878e+02
1.038000000000000000e+03 1.923380560166016267e+02
1.039000000000000000e+03 1.208697176348542257e+02
1.040000000000000000e+03 1.075534873443990023e+02
1.041000000000000000e+03 9.611613516597905971e+01
1.042000000000000000e+03 4.889850134575601004e+01
1.043000000000000000e+03 5.365871323651580838e+01
1.044000000000000000e+03 8.657311568464584184e+01
1.045000000000000000e+03 1.054461352697089183e+02
1.046000000000000000e+03 1.392332571428586618e+02
1.047000000000000000e+03 6.736415099583683741e+01
1.048000000000000000e+03 6.470129215766543496e+01
1.049000000000000000e+03 1.397454182572623154e+02
1.050000000000000000e+03 7.118229514522899137e+01
1.051000000000000000e+03 9.538778564314819164e+01
1.052000000000000000e+03 1.373808614107884978e+02
1.053000000000000000e+03 9.610588062240432805e+01
1.054000000000000000e+03 1.744388741200821613e+01
1.055000000000000000e+03 3.760410860995307303e+01
1.056000000000000000e+03 5.750813466804959972e+01
1.057000000000000000e+03 3.698589566390009509e+01
1.058000000000000000e+03 7.767811340248616148e+01
1.059000000000000000e+03 1.247336958506223539e+02
1.060000000000000000e+03 9.158125112033069115e+01
1.061000000000000000e+03 7.405744522821321141e+01
1.062000000000000000e+03 1.047586031055776523e+01
1.063000000000000000e+03 4.319978663900410965e+01
1.064000000000000000e+03 1.604004210580715295e+01
1.065000000000000000e+03 2.905671950207198506e+01
1.066000000000000000e+03 6.267393937888147093e+01
1.067000000000000000e+03 6.109717124481061035e+01
1.068000000000000000e+03 2.056499360995826464e+01
1.069000000000000000e+03 2.117424095435418252e+01
1.070000000000000000e+03 7.912057452282191150e+01
1.071000000000000000e+03 7.898206215320887225e+01
1.072000000000000000e+03 9.509622865145040294e+01
1.073000000000000000e+03 1.386475975103729184e+02
1.074000000000000000e+03 1.701407784232376628e+02
1.075000000000000000e+03 1.669029066390055220e+02
1.076000000000000000e+03 1.480549917012448020e+02
1.077000000000000000e+03 1.953937004149412076e+02
1.078000000000000000e+03 2.469537340248878081e+02
1.079000000000000000e+03 1.701512751037351450e+02
1.080000000000000000e+03 1.674264402489625922e+02
1.081000000000000000e+03 1.438700458506211817e+02
1.082000000000000000e+03 1.389434062240664502e+02
1.083000000000000000e+03 1.840349782608684848e+02
1.084000000000000000e+03 1.271095058091241441e+02
1.085000000000000000e+03 1.128823825726181980e+02
1.086000000000000000e+03 1.482683643153509934e+02
1.087000000000000000e+03 1.516047643153527531e+02
1.088000000000000000e+03 1.553463414937776861e+02
1.089000000000000000e+03 1.832837136929497319e+02
1.090000000000000000e+03 1.479934595435679228e+02
1.091000000000000000e+03 1.726953875518677819e+02
1.092000000000000000e+03 1.769840933609946774e+02
1.093000000000000000e+03 1.407547813278026467e+02
1.094000000000000000e+03 1.210703000000000031e+02
1.095000000000000000e+03 1.480789506224094794e+02
1.096000000000000000e+03 1.461371526970988555e+02
1.097000000000000000e+03 8.158954597510472695e+01
1.098000000000000000e+03 1.258169229252835208e+01
1.099000000000000000e+03 1.557348614107783291e+01
1.100000000000000000e+03 8.617284385092992238e+01
1.101000000000000000e+03 1.311264896265377899e+01
1.102000000000000000e+03 1.841785896266003419e+01
1.103000000000000000e+03 8.163916601659633443e+01
1.104000000000000000e+03 6.287514267080831587e+01
1.105000000000000000e+03 1.197642990248813000e+01
1.106000000000000000e+03 5.242536251036247563e+01
1.107000000000000000e+03 8.774065612033493267e+01
1.108000000000000000e+03 5.712008944099439134e+01
1.109000000000000000e+03 7.867119439834019090e+01
1.110000000000000000e+03 7.196544672199235038e+01
1.111000000000000000e+03 6.677119892116181177e+01
1.112000000000000000e+03 7.766241884057939160e+01
1.113000000000000000e+03 2.930425943983901149e+01
1.114000000000000000e+03 7.738155545642933930e+01
1.115000000000000000e+03 2.571072923236140895e+01
1.116000000000000000e+03 1.887228368532121392e+00
1.117000000000000000e+03 4.374530016594429860e+00
1.118000000000000000e+03 2.955267514522789440e+01
1.119000000000000000e+03 7.260827302905632052e+00
1.120000000000000000e+03 1.737566568464745131e+01
1.121000000000000000e+03 1.260934181950177191e+01
1.122000000000000000e+03 6.952740107883914789e+01
1.123000000000000000e+03 3.974394665975184893e+01
1.124000000000000000e+03 6.224866840248604660e+01
1.125000000000000000e+03 1.938439095435720674e+02
1.126000000000000000e+03 1.173385340663703431e+02
1.127000000000000000e+03 6.455155883817002405e+01
1.128000000000000000e+03 7.037667373444128316e+01
1.129000000000000000e+03 4.011602860996593023e+01
1.130000000000000000e+03 1.133747987966894186e+02
1.131000000000000000e+03 5.755108006223905193e+01
1.132000000000000000e+03 9.501253292531089301e+01
1.133000000000000000e+03 5.148564356107591777e+01
1.134000000000000000e+03 1.199896149377591570e+01
1.135000000000000000e+03 7.483323327800786728e+01
1.136000000000000000e+03 6.121219734439434035e+01
1.137000000000000000e+03 1.749286782608711377e+01
1.138000000000000000e+03 6.454122923236207043e+01
1.139000000000000000e+03 8.272504004149136847e+01
1.140000000000000000e+03 4.053596002074740312e+01
1.141000000000000000e+03 9.459263666666399217e+01
1.142000000000000000e+03 1.167541041493776817e+02
1.143000000000000000e+03 9.080319290456230874e+01
1.144000000000000000e+03 7.437700921161518863e+01
1.145000000000000000e+03 1.287441463768100220e+02
1.146000000000000000e+03 1.579315406639005914e+02
1.147000000000000000e+03 1.401141995850616695e+02
1.148000000000000000e+03 1.620127713692909595e+02
1.149000000000000000e+03 2.077383000000000095e+02
1.150000000000000000e+03 1.717923273858833966e+02
1.151000000000000000e+03 1.042325887966806164e+02
1.152000000000000000e+03 1.142747775933611365e+02
1.153000000000000000e+03 8.803233821576662876e+01
1.154000000000000000e+03 7.848725026970845420e+01
1.155000000000000000e+03 1.426810452282129802e+02
1.156000000000000000e+03 6.775090209543469655e+01
1.157000000000000000e+03 2.893405496894542850e+01
1.158000000000000000e+03 9.323137746887707067e+01
1.159000000000000000e+03 5.426866780083076236e+01
1.160000000000000000e+03 1.004429767635089732e+01
1.161000000000000000e+03 5.102022614107959697e+01
1.162000000000000000e+03 7.627405724637598894e+01
1.163000000000000000e+03 8.196805815352652758e+01
1.164000000000000000e+03 9.567810091287003615e+01
1.165000000000000000e+03 1.940675518672143482e+02
1.166000000000000000e+03 1.873633881987577183e+02
1.167000000000000000e+03 1.637160709543557857e+02
1.168000000000000000e+03 1.865758265560139080e+02
1.169000000000000000e+03 1.309089327800862463e+02
1.170000000000000000e+03 1.177072047717843049e+02
1.171000000000000000e+03 6.157453497924498720e+01
1.172000000000000000e+03 3.621280199169603975e+00
1.173000000000000000e+03 3.419295811203314628e+01
1.174000000000000000e+03 6.828602602484386352e+01
1.175000000000000000e+03 4.203189477178858624e+01
1.176000000000000000e+03 1.950392369294513628e+01
1.177000000000000000e+03 8.556812468879722644e+01
1.178000000000000000e+03 3.757759136928986266e+01
1.179000000000000000e+03 1.101051663485436904e+02
1.180000000000000000e+03 4.658038607883656823e+01
1.181000000000000000e+03 1.085826931742850974e+02
1.182000000000000000e+03 5.719248834026078043e+01
1.183000000000000000e+03 4.619348307053827796e+01
1.184000000000000000e+03 1.507100663900425559e+02
1.185000000000000000e+03 1.085764194190739573e+02
1.186000000000000000e+03 6.650014807454000199e+00
1.187000000000000000e+03 4.009586935684840370e+01
1.188000000000000000e+03 8.065771914937614895e+01
1.189000000000000000e+03 4.666601495850697745e+01
1.190000000000000000e+03 6.830107668049768677e+01
1.191000000000000000e+03 4.137968043477985702e+01
1.192000000000000000e+03 8.517132174273994494e+00
1.193000000000000000e+03 3.118972526970870263e+01
1.194000000000000000e+03 6.246290078423539427e+01
1.195000000000000000e+03 9.873592443063742508e+01
1.196000000000000000e+03 7.776441373443805105e+01
1.197000000000000000e+03 9.130351605809146065e+01
1.198000000000000000e+03 5.203077620332459929e+01
1.199000000000000000e+03 1.016308248962715624e+02
1.200000000000000000e+03 3.340352556016593866e+01
1.201000000000000000e+03 6.387855029045812927e+01
1.202000000000000000e+03 1.035054107883820649e+02
1.203000000000000000e+03 6.878906184265308354e+01
1.204000000000000000e+03 3.185628885892090523e+01
1.205000000000000000e+03 5.560014995850963260e+01
1.206000000000000000e+03 7.514131056016604759e+01
1.207000000000000000e+03 7.133652176348566343e+01
1.208000000000000000e+03 1.011550402489656904e+02
1.209000000000000000e+03 1.200711290456406317e+02
1.210000000000000000e+03 6.208690991701450912e+01
1.211000000000000000e+03 2.836121931677000418e+01
1.212000000000000000e+03 1.760244607884168744e+01
1.213000000000000000e+03 5.809029570539370724e+01
1.214000000000000000e+03 6.598323906638913172e+01
1.215000000000000000e+03 1.653763211180174153e+02
1.216000000000000000e+03 2.267608224066395906e+02
1.217000000000000000e+03 2.278644809128633142e+02
1.218000000000000000e+03 2.856976340248981501e+02
1.219000000000000000e+03 3.193597161825711623e+02
1.220000000000000000e+03 2.981091915113886444e+02
1.221000000000000000e+03 2.689637085062241226e+02
1.222000000000000000e+03 2.177388224066352223e+02
1.223000000000000000e+03 1.740059809128648567e+02
1.224000000000000000e+03 2.137470410788381514e+02
1.225000000000000000e+03 2.039007572614093533e+02
1.226000000000000000e+03 1.723093713692951496e+02
1.227000000000000000e+03 2.027565543568435942e+02
1.228000000000000000e+03 2.367901877593360496e+02
1.229000000000000000e+03 1.923732827800776590e+02
1.230000000000000000e+03 1.174538352697154693e+02
1.231000000000000000e+03 1.055748458298746471e+02
1.232000000000000000e+03 9.712395159420131563e+01
1.233000000000000000e+03 1.170515317427349942e+02
1.234000000000000000e+03 1.327115684647328067e+02
1.235000000000000000e+03 9.904133950207467763e+01
1.236000000000000000e+03 1.184822087136938649e+02
1.237000000000000000e+03 8.669188923237645383e+01
1.238000000000000000e+03 4.101673116182518442e+01
1.239000000000000000e+03 3.725574801866895314e+01
1.240000000000000000e+03 3.960593192546573249e+01
1.241000000000000000e+03 9.571721999998599628e+00
1.242000000000000000e+03 1.361889103734555562e+01
1.243000000000000000e+03 5.614579439834271568e+01
1.244000000000000000e+03 8.659445031055662412e+01
1.245000000000000000e+03 1.283773493775931627e+02
1.246000000000000000e+03 1.803067595435715020e+02
1.247000000000000000e+03 2.054257431535271223e+02
1.248000000000000000e+03 2.143074197095423870e+02
1.249000000000000000e+03 2.450305020703943626e+02
1.250000000000000000e+03 2.398981709543529632e+02
1.251000000000000000e+03 1.309790738589224190e+02
1.252000000000000000e+03 1.187736381742741258e+02
1.253000000000000000e+03 1.013330974481342679e+02
1.254000000000000000e+03 1.325155462655588110e+02
1.255000000000000000e+03 1.202260209543576934e+02
1.256000000000000000e+03 1.076963404564313436e+02
1.257000000000000000e+03 9.319741838174282123e+01
1.258000000000000000e+03 1.467265224066337339e+02
1.259000000000000000e+03 1.488471738589209394e+02
1.260000000000000000e+03 1.766882962655683116e+02
1.261000000000000000e+03 2.329893956521742950e+02
1.262000000000000000e+03 1.932690850622412313e+02
1.263000000000000000e+03 1.635047917012430503e+02
1.264000000000000000e+03 1.257950049792629557e+02
1.265000000000000000e+03 2.044083254658403348e+02
1.266000000000000000e+03 1.667418871369297619e+02
1.267000000000000000e+03 1.824253099585033340e+02
1.268000000000000000e+03 1.025703465560239636e+02
1.269000000000000000e+03 4.626957167701876017e+01
1.270000000000000000e+03 9.189062751037791088e+01
1.271000000000000000e+03 1.519540993775929962e+02
1.272000000000000000e+03 2.080179657676308693e+02
1.273000000000000000e+03 1.557982579710106279e+02
1.274000000000000000e+03 8.810228887966808031e+01
1.275000000000000000e+03 7.851207937759649269e+01
1.276000000000000000e+03 8.360514717842255550e+01
1.277000000000000000e+03 1.337449917012449419e+02
1.278000000000000000e+03 8.182416904563980609e+01
1.279000000000000000e+03 1.167102624481325108e+02
1.280000000000000000e+03 1.205900695020747975e+02
1.281000000000000000e+03 1.256778788381747347e+02
1.282000000000000000e+03 1.309296639751548526e+02
1.283000000000000000e+03 1.376898045643153523e+02
1.284000000000000000e+03 1.594606643153541086e+02
1.285000000000000000e+03 1.707725759336098577e+02
1.286000000000000000e+03 2.409678598343658109e+02
1.287000000000000000e+03 2.054800526970900592e+02
1.288000000000000000e+03 1.701518614107922360e+02
1.289000000000000000e+03 1.770869605809144502e+02
1.290000000000000000e+03 1.669519416149071276e+02
1.291000000000000000e+03 1.732574809128580284e+02
1.292000000000000000e+03 1.347838912863040548e+02
1.293000000000000000e+03 1.505430614107894769e+02
1.294000000000000000e+03 1.002334926708047362e+02
1.295000000000000000e+03 4.786264060166020329e+01
1.296000000000000000e+03 7.228851414937891207e+01
1.297000000000000000e+03 1.386589750207454230e+01
1.298000000000000000e+03 6.144174885892570437e+00
1.299000000000000000e+03 1.149144190871279747e+01
1.300000000000000000e+03 5.565135178423147266e+01
1.301000000000000000e+03 8.895293327800776240e+01
1.302000000000000000e+03 8.800126564315272049e+01
1.303000000000000000e+03 3.510865064315674289e+01
1.304000000000000000e+03 9.174014522605133948e-03
1.305000000000000000e+03 0.000000000000000000e+00
1.306000000000000000e+03 0.000000000000000000e+00
1.307000000000000000e+03 0.000000000000000000e+00
1.308000000000000000e+03 0.000000000000000000e+00
1.309000000000000000e+03 0.000000000000000000e+00
1.310000000000000000e+03 0.000000000000000000e+00
1.311000000000000000e+03 0.000000000000000000e+00
1.312000000000000000e+03 0.000000000000000000e+00
1.313000000000000000e+03 0.000000000000000000e+00
1.314000000000000000e+03 0.000000000000000000e+00
1.315000000000000000e+03 0.000000000000000000e+00
1.316000000000000000e+03 0.000000000000000000e+00
1.317000000000000000e+03 0.000000000000000000e+00
1.318000000000000000e+03 0.000000000000000000e+00
1.319000000000000000e+03 0.000000000000000000e+00
1.320000000000000000e+03 0.000000000000000000e+00
1.321000000000000000e+03 0.000000000000000000e+00
1.322000000000000000e+03 0.000000000000000000e+00
1.323000000000000000e+03 0.000000000000000000e+00
1.324000000000000000e+03 0.000000000000000000e+00
1.325000000000000000e+03 0.000000000000000000e+00
1.326000000000000000e+03 0.000000000000000000e+00
1.327000000000000000e+03 0.000000000000000000e+00
1.328000000000000000e+03 0.000000000000000000e+00
1.329000000000000000e+03 0.000000000000000000e+00
1.330000000000000000e+03 0.000000000000000000e+00
1.331000000000000000e+03 0.000000000000000000e+00
1.332000000000000000e+03 0.000000000000000000e+00
1.333000000000000000e+03 0.000000000000000000e+00
1.334000000000000000e+03 0.000000000000000000e+00
1.335000000000000000e+03 0.000000000000000000e+00
1.336000000000000000e+03 0.000000000000000000e+00
1.337000000000000000e+03 0.000000000000000000e+00
1.338000000000000000e+03 0.000000000000000000e+00
1.339000000000000000e+03 0.000000000000000000e+00
1.340000000000000000e+03 0.000000000000000000e+00
1.341000000000000000e+03 0.000000000000000000e+00
1.342000000000000000e+03 0.000000000000000000e+00
1.343000000000000000e+03 0.000000000000000000e+00
1.344000000000000000e+03 0.000000000000000000e+00
1.345000000000000000e+03 0.000000000000000000e+00
1.346000000000000000e+03 0.000000000000000000e+00
1.347000000000000000e+03 0.000000000000000000e+00
1.348000000000000000e+03 0.000000000000000000e+00
1.349000000000000000e+03 0.000000000000000000e+00
1.350000000000000000e+03 0.000000000000000000e+00
1.351000000000000000e+03 0.000000000000000000e+00
1.352000000000000000e+03 0.000000000000000000e+00
1.353000000000000000e+03 0.000000000000000000e+00
1.354000000000000000e+03 0.000000000000000000e+00
1.355000000000000000e+03 0.000000000000000000e+00
1.356000000000000000e+03 0.000000000000000000e+00
1.357000000000000000e+03 0.000000000000000000e+00
1.358000000000000000e+03 0.000000000000000000e+00
1.359000000000000000e+03 0.000000000000000000e+00
1.360000000000000000e+03 0.000000000000000000e+00
1.361000000000000000e+03 0.000000000000000000e+00
1.362000000000000000e+03 0.000000000000000000e+00
1.363000000000000000e+03 0.000000000000000000e+00
1.364000000000000000e+03 0.000000000000000000e+00
1.365000000000000000e+03 0.000000000000000000e+00
1.366000000000000000e+03 0.000000000000000000e+00
1.367000000000000000e+03 0.000000000000000000e+00
1.368000000000000000e+03 0.000000000000000000e+00
1.369000000000000000e+03 0.000000000000000000e+00
1.370000000000000000e+03 0.000000000000000000e+00
1.371000000000000000e+03 0.000000000000000000e+00
1.372000000000000000e+03 0.000000000000000000e+00
1.373000000000000000e+03 0.000000000000000000e+00
1.374000000000000000e+03 0.000000000000000000e+00
1.375000000000000000e+03 0.000000000000000000e+00
1.376000000000000000e+03 0.000000000000000000e+00
1.377000000000000000e+03 0.000000000000000000e+00
1.378000000000000000e+03 0.000000000000000000e+00
1.379000000000000000e+03 0.000000000000000000e+00
1.380000000000000000e+03 0.000000000000000000e+00
1.381000000000000000e+03 0.000000000000000000e+00
1.382000000000000000e+03 0.000000000000000000e+00
1.383000000000000000e+03 0.000000000000000000e+00
1.384000000000000000e+03 0.000000000000000000e+00
1.385000000000000000e+03 0.000000000000000000e+00
1.386000000000000000e+03 0.000000000000000000e+00
1.387000000000000000e+03 0.000000000000000000e+00
1.388000000000000000e+03 0.000000000000000000e+00
1.389000000000000000e+03 0.000000000000000000e+00
1.390000000000000000e+03 0.000000000000000000e+00
1.391000000000000000e+03 0.000000000000000000e+00
1.392000000000000000e+03 0.000000000000000000e+00
1.393000000000000000e+03 0.000000000000000000e+00
1.394000000000000000e+03 0.000000000000000000e+00
1.395000000000000000e+03 0.000000000000000000e+00
1.396000000000000000e+03 0.000000000000000000e+00
1.397000000000000000e+03 0.000000000000000000e+00
1.398000000000000000e+03 0.000000000000000000e+00
1.399000000000000000e+03 0.000000000000000000e+00
1.400000000000000000e+03 0.000000000000000000e+00
1.401000000000000000e+03 0.000000000000000000e+00
1.402000000000000000e+03 0.000000000000000000e+00
1.403000000000000000e+03 0.000000000000000000e+00
1.404000000000000000e+03 0.000000000000000000e+00
1.405000000000000000e+03 0.000000000000000000e+00
1.406000000000000000e+03 0.000000000000000000e+00
1.407000000000000000e+03 0.000000000000000000e+00
1.408000000000000000e+03 0.000000000000000000e+00
1.409000000000000000e+03 0.000000000000000000e+00
1.410000000000000000e+03 0.000000000000000000e+00
1.411000000000000000e+03 0.000000000000000000e+00
1.412000000000000000e+03 0.000000000000000000e+00
1.413000000000000000e+03 0.000000000000000000e+00
1.414000000000000000e+03 0.000000000000000000e+00
1.415000000000000000e+03 0.000000000000000000e+00
1.416000000000000000e+03 0.000000000000000000e+00
1.417000000000000000e+03 0.000000000000000000e+00
1.418000000000000000e+03 0.000000000000000000e+00
1.419000000000000000e+03 0.000000000000000000e+00
1.420000000000000000e+03 0.000000000000000000e+00
1.421000000000000000e+03 0.000000000000000000e+00
1.422000000000000000e+03 0.000000000000000000e+00
1.423000000000000000e+03 0.000000000000000000e+00
1.424000000000000000e+03 0.000000000000000000e+00
1.425000000000000000e+03 0.000000000000000000e+00
1.426000000000000000e+03 0.000000000000000000e+00
1.427000000000000000e+03 0.000000000000000000e+00
1.428000000000000000e+03 0.000000000000000000e+00
1.429000000000000000e+03 0.000000000000000000e+00
1.430000000000000000e+03 0.000000000000000000e+00
1.431000000000000000e+03 0.000000000000000000e+00
1.432000000000000000e+03 0.000000000000000000e+00
1.433000000000000000e+03 0.000000000000000000e+00
1.434000000000000000e+03 0.000000000000000000e+00
1.435000000000000000e+03 0.000000000000000000e+00
1.436000000000000000e+03 0.000000000000000000e+00
1.437000000000000000e+03 0.000000000000000000e+00
1.438000000000000000e+03 0.000000000000000000e+00
1.439000000000000000e+03 0.000000000000000000e+00
1.440000000000000000e+03 0.000000000000000000e+00
1.441000000000000000e+03 0.000000000000000000e+00
1.442000000000000000e+03 0.000000000000000000e+00
1.443000000000000000e+03 0.000000000000000000e+00
1.444000000000000000e+03 0.000000000000000000e+00
1.445000000000000000e+03 0.000000000000000000e+00
1.446000000000000000e+03 0.000000000000000000e+00
1.447000000000000000e+03 0.000000000000000000e+00
1.448000000000000000e+03 0.000000000000000000e+00
1.449000000000000000e+03 0.000000000000000000e+00
1.450000000000000000e+03 0.000000000000000000e+00
1.451000000000000000e+03 0.000000000000000000e+00
1.452000000000000000e+03 0.000000000000000000e+00
1.453000000000000000e+03 0.000000000000000000e+00
1.454000000000000000e+03 0.000000000000000000e+00
1.455000000000000000e+03 0.000000000000000000e+00
1.456000000000000000e+03 0.000000000000000000e+00
1.457000000000000000e+03 0.000000000000000000e+00
1.458000000000000000e+03 0.000000000000000000e+00
1.459000000000000000e+03 0.000000000000000000e+00
1.460000000000000000e+03 0.000000000000000000e+00
1.461000000000000000e+03 0.000000000000000000e+00
1.462000000000000000e+03 0.000000000000000000e+00
1.463000000000000000e+03 0.000000000000000000e+00
1.464000000000000000e+03 0.000000000000000000e+00
1.465000000000000000e+03 0.000000000000000000e+00
1.466000000000000000e+03 0.000000000000000000e+00
1.467000000000000000e+03 0.000000000000000000e+00
1.468000000000000000e+03 0.000000000000000000e+00
1.469000000000000000e+03 0.000000000000000000e+00
1.470000000000000000e+03 0.000000000000000000e+00
1.471000000000000000e+03 0.000000000000000000e+00
1.472000000000000000e+03 0.000000000000000000e+00
1.473000000000000000e+03 0.000000000000000000e+00
1.474000000000000000e+03 0.000000000000000000e+00
1.475000000000000000e+03 0.000000000000000000e+00
1.476000000000000000e+03 0.000000000000000000e+00
1.477000000000000000e+03 0.000000000000000000e+00
1.478000000000000000e+03 0.000000000000000000e+00
1.479000000000000000e+03 0.000000000000000000e+00
1.480000000000000000e+03 0.000000000000000000e+00
1.481000000000000000e+03 0.000000000000000000e+00
1.482000000000000000e+03 0.000000000000000000e+00
1.483000000000000000e+03 0.000000000000000000e+00
1.484000000000000000e+03 0.000000000000000000e+00
1.485000000000000000e+03 0.000000000000000000e+00
1.486000000000000000e+03 0.000000000000000000e+00
1.487000000000000000e+03 0.000000000000000000e+00
1.488000000000000000e+03 0.000000000000000000e+00
1.489000000000000000e+03 0.000000000000000000e+00
1.490000000000000000e+03 0.000000000000000000e+00
1.491000000000000000e+03 0.000000000000000000e+00
1.492000000000000000e+03 0.000000000000000000e+00
1.493000000000000000e+03 0.000000000000000000e+00
1.494000000000000000e+03 0.000000000000000000e+00
1.495000000000000000e+03 0.000000000000000000e+00
1.496000000000000000e+03 0.000000000000000000e+00
1.497000000000000000e+03 0.000000000000000000e+00
1.498000000000000000e+03 0.000000000000000000e+00
1.499000000000000000e+03 0.000000000000000000e+00
1.500000000000000000e+03 0.000000000000000000e+00
