1.010000000000000000e+02 0.000000000000000000e+00
1.020000000000000000e+02 0.000000000000000000e+00
1.030000000000000000e+02 0.000000000000000000e+00
1.040000000000000000e+02 0.000000000000000000e+00
1.050000000000000000e+02 0.000000000000000000e+00
1.060000000000000000e+02 0.000000000000000000e+00
1.070000000000000000e+02 0.000000000000000000e+00
1.080000000000000000e+02 0.000000000000000000e+00
1.090000000000000000e+02 0.000000000000000000e+00
1.100000000000000000e+02 0.000000000000000000e+00
1.110000000000000000e+02 0.000000000000000000e+00
1.120000000000000000e+02 0.000000000000000000e+00
1.130000000000000000e+02 0.000000000000000000e+00
1.140000000000000000e+02 0.000000000000000000e+00
1.150000000000000000e+02 0.000000000000000000e+00
1.160000000000000000e+02 0.000000000000000000e+00
1.170000000000000000e+02 0.000000000000000000e+00
1.180000000000000000e+02 0.000000000000000000e+00
1.190000000000000000e+02 0.000000000000000000e+00
1.200000000000000000e+02 0.000000000000000000e+00
1.210000000000000000e+02 0.000000000000000000e+00
1.220000000000000000e+02 0.000000000000000000e+00
1.230000000000000000e+02 0.000000000000000000e+00
1.240000000000000000e+02 0.000000000000000000e+00
1.250000000000000000e+02 0.000000000000000000e+00
1.260000000000000000e+02 0.000000000000000000e+00
1.270000000000000000e+02 0.000000000000000000e+00
1.280000000000000000e+02 0.000000000000000000e+00
1.290000000000000000e+02 0.000000000000000000e+00
1.300000000000000000e+02 0.000000000000000000e+00
1.310000000000000000e+02 0.000000000000000000e+00
1.320000000000000000e+02 0.000000000000000000e+00
1.330000000000000000e+02 0.000000000000000000e+00
1.340000000000000000e+02 0.000000000000000000e+00
1.350000000000000000e+02 0.000000000000000000e+00
1.360000000000000000e+02 0.000000000000000000e+00
1.370000000000000000e+02 0.000000000000000000e+00
1.380000000000000000e+02 0.000000000000000000e+00
1.390000000000000000e+02 0.000000000000000000e+00
1.400000000000000000e+02 0.000000000000000000e+00
1.410000000000000000e+02 0.000000000000000000e+00
1.420000000000000000e+02 0.000000000000000000e+00
1.430000000000000000e+02 0.000000000000000000e+00
1.440000000000000000e+02 0.000000000000000000e+00
1.450000000000000000e+02 0.000000000000000000e+00
1.460000000000000000e+02 0.000000000000000000e+00
1.470000000000000000e+02 0.000000000000000000e+00
1.480000000000000000e+02 0.000000000000000000e+00
1.490000000000000000e+02 0.000000000000000000e+00
1.500000000000000000e+02 0.000000000000000000e+00
1.510000000000000000e+02 0.000000000000000000e+00
1.520000000000000000e+02 0.000000000000000000e+00
1.530000000000000000e+02 0.000000000000000000e+00
1.540000000000000000e+02 0.000000000000000000e+00
1.550000000000000000e+02 0.000000000000000000e+00
1.560000000000000000e+02 0.000000000000000000e+00
1.570000000000000000e+02 0.000000000000000000e+00
1.580000000000000000e+02 0.000000000000000000e+00
1.590000000000000000e+02 0.000000000000000000e+00
1.600000000000000000e+02 0.000000000000000000e+00
1.610000000000000000e+02 0.000000000000000000e+00
1.620000000000000000e+02 0.000000000000000000e+00
1.630000000000000000e+02 0.000000000000000000e+00
1.640000000000000000e+02 0.000000000000000000e+00
1.650000000000000000e+02 0.000000000000000000e+00
1.660000000000000000e+02 0.000000000000000000e+00
1.670000000000000000e+02 0.000000000000000000e+00
1.680000000000000000e+02 0.000000000000000000e+00
1.690000000000000000e+02 0.000000000000000000e+00
1.700000000000000000e+02 1.699326056016536857e+00
1.710000000000000000e+02 1.280288094190854764e+01
1.720000000000000000e+02 3.247648118257258432e+01
1.730000000000000000e+02 1.048804189419115929e+01
1.740000000000000000e+02 1.823654365145250811e+00
1.750000000000000000e+02 1.880485863070522257e+01
1.760000000000000000e+02 2.595770062240660181e+01
1.770000000000000000e+02 1.431655889026923312e+01
1.780000000000000000e+02 1.296569458506209038e+01
1.790000000000000000e+02 2.714054116182555987e+01
1.800000000000000000e+02 4.210369603734429944e+01
1.810000000000000000e+02 4.944638485477177881e+01
1.820000000000000000e+02 3.834153041493799208e+01
1.830000000000000000e+02 2.658001921161825720e+01
1.840000000000000000e+02 2.879661672199171107e+01
1.850000000000000000e+02 2.377046734439836939e+01
1.860000000000000000e+02 3.191210082987537078e+01
1.870000000000000000e+02 3.398798728215773934e+01
1.880000000000000000e+02 2.155564520746895951e+01
1.890000000000000000e+02 1.490011692946060151e+01
1.900000000000000000e+02 2.217134858921150453e+01
1.910000000000000000e+02 3.665661261410776461e+01
1.920000000000000000e+02 4.390338771784238503e+01
1.930000000000000000e+02 3.164083016597515297e+01
1.940000000000000000e+02 2.351494619047620915e+01
1.950000000000000000e+02 2.271094933609956001e+01
1.960000000000000000e+02 3.012922446058085768e+01
1.970000000000000000e+02 4.334393099585057030e+01
1.980000000000000000e+02 5.771995931677012948e+01
1.990000000000000000e+02 5.405757713692953104e+01
2.000000000000000000e+02 3.573996024896275259e+01
2.010000000000000000e+02 1.884382074688799946e+01
2.020000000000000000e+02 2.455745186721989981e+01
2.030000000000000000e+02 4.773872699170110678e+01
2.040000000000000000e+02 5.138026775933614942e+01
2.050000000000000000e+02 4.368398070539416977e+01
2.060000000000000000e+02 4.844380283643893392e+01
2.070000000000000000e+02 3.338791381742743880e+01
2.080000000000000000e+02 2.588847165975103692e+01
2.090000000000000000e+02 3.919044095435680930e+01
2.100000000000000000e+02 5.750761443983402188e+01
2.110000000000000000e+02 3.180528378881990292e+01
2.120000000000000000e+02 1.763166300829876576e+01
2.130000000000000000e+02 2.482944854771783838e+01
2.140000000000000000e+02 3.448714221991701834e+01
2.150000000000000000e+02 2.225361917012450164e+01
2.160000000000000000e+02 2.355561867219916650e+01
2.170000000000000000e+02 1.365684394190870243e+01
2.180000000000000000e+02 3.183246307053947177e+00
2.190000000000000000e+02 7.114756892116171905e+00
2.200000000000000000e+02 1.547484601659751036e+01
2.210000000000000000e+02 5.315368578838150171e+00
2.220000000000000000e+02 3.568019844398393037e+00
2.230000000000000000e+02 1.434952322981366812e+01
2.240000000000000000e+02 1.106797634854771495e+01
2.250000000000000000e+02 1.179313975103734791e+01
2.260000000000000000e+02 4.815972282157614970e+00
2.270000000000000000e+02 2.572651277432720818e+00
2.280000000000000000e+02 1.807732315352700070e+01
2.290000000000000000e+02 2.903479738589214776e+01
2.300000000000000000e+02 2.998476927385890534e+01
2.310000000000000000e+02 2.656542995850619704e+01
2.320000000000000000e+02 1.976208195020742764e+01
2.330000000000000000e+02 4.818792813277964271e+00
2.340000000000000000e+02 1.109438074688797471e+01
2.350000000000000000e+02 1.431300680745372134e+01
2.360000000000000000e+02 3.888532182572605223e+01
2.370000000000000000e+02 9.333731890041381263e+00
2.380000000000000000e+02 3.121455800829918914e+00
2.390000000000000000e+02 3.326904072614144781e+01
2.400000000000000000e+02 3.480646175983415702e+01
2.410000000000000000e+02 3.456042356846391606e+00
2.420000000000000000e+02 6.032584526971050742e+00
2.430000000000000000e+02 3.328218543568493715e+01
2.440000000000000000e+02 3.432995778008287857e+01
2.450000000000000000e+02 2.087729344398344367e+01
2.460000000000000000e+02 2.474078701244811285e+01
2.470000000000000000e+02 1.993557367219915477e+01
2.480000000000000000e+02 2.589410786749491322e+01
2.490000000000000000e+02 2.333132294605792012e+01
2.500000000000000000e+02 4.451485804979117944e+00
2.510000000000000000e+02 4.277975265560174378e+00
2.520000000000000000e+02 7.467952273859120638e+00
2.530000000000000000e+02 1.358943639004146675e+01
2.540000000000000000e+02 1.354115927385894835e+01
2.550000000000000000e+02 1.960780556016604947e+01
2.560000000000000000e+02 2.635343437759327045e+01
2.570000000000000000e+02 3.426999593361001217e+01
2.580000000000000000e+02 3.657832692946053754e+01
2.590000000000000000e+02 3.329109622406640767e+01
2.600000000000000000e+02 3.389656244813271968e+01
2.610000000000000000e+02 1.537049742738607705e+01
2.620000000000000000e+02 3.376520827800839619e+00
2.630000000000000000e+02 1.304230054979246844e+01
2.640000000000000000e+02 3.897582578838176914e+01
2.650000000000000000e+02 5.283644351966869834e+01
2.660000000000000000e+02 3.189788157676371938e+01
2.670000000000000000e+02 1.547274439834025905e+01
2.680000000000000000e+02 2.209323792531113995e+01
2.690000000000000000e+02 3.140773659751045699e+01
2.700000000000000000e+02 3.810225929460588645e+01
2.710000000000000000e+02 6.367738056016635539e+01
2.720000000000000000e+02 7.215943195020692258e+01
2.730000000000000000e+02 3.224361170124516462e+01
2.740000000000000000e+02 3.675877033195058985e+00
2.750000000000000000e+02 1.697424730290448736e+01
2.760000000000000000e+02 2.777775639004148545e+01
2.770000000000000000e+02 2.710893287784661609e+01
2.780000000000000000e+02 4.466543165975103591e+01
2.790000000000000000e+02 3.615701520746890196e+01
2.800000000000000000e+02 1.258341729253117691e+01
2.810000000000000000e+02 2.140187340462640808e+00
2.820000000000000000e+02 9.360954340249229233e+00
2.830000000000000000e+02 4.540196153527024592e+01
2.840000000000000000e+02 3.841538551867191131e+01
2.850000000000000000e+02 3.007482140786756375e+01
2.860000000000000000e+02 2.427022431535287339e+01
2.870000000000000000e+02 2.255570360995865276e+00
2.880000000000000000e+02 6.991841051867221601e+00
2.890000000000000000e+02 8.191372265560158183e+00
2.900000000000000000e+02 1.777312282157688372e+01
2.910000000000000000e+02 3.555920278008301949e+01
2.920000000000000000e+02 3.130910738589206588e+01
2.930000000000000000e+02 1.056212546058084101e+01
2.940000000000000000e+02 8.922654623188636336e+00
2.950000000000000000e+02 1.769546765560172474e+01
2.960000000000000000e+02 1.471658470954346143e+01
2.970000000000000000e+02 4.715847244813036632e+00
2.980000000000000000e+02 5.532252211618229332e+00
2.990000000000000000e+02 3.439182307053934906e+00
3.000000000000000000e+02 1.207167526970954086e+01
3.010000000000000000e+02 2.211790941908715880e+01
3.020000000000000000e+02 2.684982620331952319e+01
3.030000000000000000e+02 2.579555255186718199e+01
3.040000000000000000e+02 2.138971643153521995e+01
3.050000000000000000e+02 2.255424703319512858e+01
3.060000000000000000e+02 3.682889347826108661e+01
3.070000000000000000e+02 2.286366045643120515e+01
3.080000000000000000e+02 2.040207518672216835e+01
3.090000000000000000e+02 2.041655269709519871e+01
3.100000000000000000e+02 3.928745327800452714e+00
3.110000000000000000e+02 1.488507904564297490e+00
3.120000000000000000e+02 1.446825645228214263e+01
3.130000000000000000e+02 3.861473651452288181e+01
3.140000000000000000e+02 4.510430275362324437e+01
3.150000000000000000e+02 1.556321082987551208e+01
3.160000000000000000e+02 3.037405311203341896e+01
3.170000000000000000e+02 1.322981518672146173e+01
3.180000000000000000e+02 5.826641066389976586e+00
3.190000000000000000e+02 2.162005282157691965e+01
3.200000000000000000e+02 2.279061512448127402e+01
3.210000000000000000e+02 1.643045315352713232e+01
3.220000000000000000e+02 8.581730280083185392e+00
3.230000000000000000e+02 9.049569124223593164e+00
3.240000000000000000e+02 2.133195863070539744e+01
3.250000000000000000e+02 3.235740215767634709e+01
3.260000000000000000e+02 1.555566170124482639e+01
3.270000000000000000e+02 3.149463041493885029e+01
3.280000000000000000e+02 5.449737271784329806e+01
3.290000000000000000e+02 1.683546668049806883e+01
3.300000000000000000e+02 3.565239699170100351e+01
3.310000000000000000e+02 3.046709253112066307e+01
3.320000000000000000e+02 1.145013521991723948e+01
3.330000000000000000e+02 2.349566058091346221e+00
3.340000000000000000e+02 5.578490759335963389e+00
3.350000000000000000e+02 2.551614970954322459e+01
3.360000000000000000e+02 1.191407715975109660e+01
3.370000000000000000e+02 6.522593746887981325e+00
3.380000000000000000e+02 3.743470726141156391e+00
3.390000000000000000e+02 2.054414374741210381e+01
3.400000000000000000e+02 3.596346979253101495e+01
3.410000000000000000e+02 2.937165917012487171e+01
3.420000000000000000e+02 2.272500655601631436e+01
3.430000000000000000e+02 3.942606701863352470e+01
3.440000000000000000e+02 2.848333201244823343e+01
3.450000000000000000e+02 2.713904829875514579e+01
3.460000000000000000e+02 1.130515956846507919e+01
3.470000000000000000e+02 2.700669394190992278e+00
3.480000000000000000e+02 2.052423273291933725e+01
3.490000000000000000e+02 9.518849626555990540e+00
3.500000000000000000e+02 1.991345278008309805e+01
3.510000000000000000e+02 3.009414912863071123e+01
3.520000000000000000e+02 2.603437051867204488e+01
3.530000000000000000e+02 3.030786566390071002e+01
3.540000000000000000e+02 8.963044124481546859e+00
3.550000000000000000e+02 1.390027931535246530e+01
3.560000000000000000e+02 1.662865977593368783e+01
3.570000000000000000e+02 6.381407717842315641e-01
3.580000000000000000e+02 7.235713062240609617e+00
3.590000000000000000e+02 1.748624809128625657e+01
3.600000000000000000e+02 2.499481037267086592e+01
3.610000000000000000e+02 3.384178788381743885e+01
3.620000000000000000e+02 3.717235039419083620e+01
3.630000000000000000e+02 6.182610170124252846e+00
3.640000000000000000e+02 1.332430936514544229e+01
3.650000000000000000e+02 1.673261834024907557e+01
3.660000000000000000e+02 1.655875286307025362e+01
3.670000000000000000e+02 3.171662655601657832e+01
3.680000000000000000e+02 3.006579804979255854e+01
3.690000000000000000e+02 2.714187300829874872e+01
3.700000000000000000e+02 2.117067147302903507e+01
3.710000000000000000e+02 2.148735981327801170e+01
3.720000000000000000e+02 3.396345260869566829e+01
3.730000000000000000e+02 1.639134265560165460e+01
3.740000000000000000e+02 3.323966975103748922e+01
3.750000000000000000e+02 3.312028141078817356e+01
3.760000000000000000e+02 6.727438663900215055e+00
3.770000000000000000e+02 4.159110652173947820e+00
3.780000000000000000e+02 3.706425738589111063e+00
3.790000000000000000e+02 3.377087238589163576e+01
3.800000000000000000e+02 4.887991914937792615e+01
3.810000000000000000e+02 2.085380560165975794e+01
3.820000000000000000e+02 2.687255809128633999e+01
3.830000000000000000e+02 2.781589668049789310e+01
3.840000000000000000e+02 1.564954526970944748e+01
3.850000000000000000e+02 7.019057999999999353e+00
3.860000000000000000e+02 1.047271602697096249e+01
3.870000000000000000e+02 1.209889713692948376e+01
3.880000000000000000e+02 2.069158665975113820e+01
3.890000000000000000e+02 2.112526362318846296e+01
3.900000000000000000e+02 1.356846962655609801e+01
3.910000000000000000e+02 9.651911609958498062e+00
3.920000000000000000e+02 2.261079132780077927e+01
3.930000000000000000e+02 2.591794571428571103e+01
3.940000000000000000e+02 2.526498605809128861e+01
3.950000000000000000e+02 3.069619172199190871e+01
3.960000000000000000e+02 3.880594006224051640e+01
3.970000000000000000e+02 2.027211676348527547e+01
3.980000000000000000e+02 2.590440605809113173e+00
3.990000000000000000e+02 1.218252399585082735e+01
4.000000000000000000e+02 3.240376265560176705e+01
4.010000000000000000e+02 3.360531987577644486e+01
4.020000000000000000e+02 1.713464890041497313e+01
4.030000000000000000e+02 1.714946487551865317e+01
4.040000000000000000e+02 3.030028912863063084e+01
4.050000000000000000e+02 2.792799865145234861e+01
4.060000000000000000e+02 2.373046896265483596e+00
4.070000000000000000e+02 1.027900226141105300e+01
4.080000000000000000e+02 2.271680697095445467e+01
4.090000000000000000e+02 2.331128269709531509e+01
4.100000000000000000e+02 1.190335004554823684e+01
4.110000000000000000e+02 1.626131004149417469e+00
4.120000000000000000e+02 1.377220744813282849e+01
4.130000000000000000e+02 5.804532516597499026e+00
4.140000000000000000e+02 4.371068608695708235e+00
4.150000000000000000e+02 8.808102232365179418e+00
4.160000000000000000e+02 1.657051261410788712e+01
4.170000000000000000e+02 1.267214124481327353e+01
4.180000000000000000e+02 1.458696339544523113e+01
4.190000000000000000e+02 2.433056836099604681e+01
4.200000000000000000e+02 2.200114773858859252e+01
4.210000000000000000e+02 5.442545975103686429e-01
4.220000000000000000e+02 5.348339869565442939e+00
4.230000000000000000e+02 1.415130145228219583e+01
4.240000000000000000e+02 1.815227825726141120e+01
4.250000000000000000e+02 1.080863346473002196e+01
4.260000000000000000e+02 3.691733170124421815e+00
4.270000000000000000e+02 3.984616172199225037e+00
4.280000000000000000e+02 1.962818327800823770e+00
4.290000000000000000e+02 7.429927186722125931e+00
4.300000000000000000e+02 1.708794763485476764e+01
4.310000000000000000e+02 1.117682672199162930e+01
4.320000000000000000e+02 1.702887195020766242e+01
4.330000000000000000e+02 1.755623572614102912e+01
4.340000000000000000e+02 2.298390037267065011e+01
4.350000000000000000e+02 2.310339869294597648e+01
4.360000000000000000e+02 9.018109919087196502e+00
4.370000000000000000e+02 6.144921400414893320e+00
4.380000000000000000e+02 1.729336539419075436e+01
4.390000000000000000e+02 2.314423014492753694e+01
4.400000000000000000e+02 1.988916987551874271e+01
4.410000000000000000e+02 1.591863651452281481e+01
4.420000000000000000e+02 1.917504763485476715e+01
4.430000000000000000e+02 2.991632397515910036e+00
4.440000000000000000e+02 1.291557905809070839e+01
4.450000000000000000e+02 2.643512280082990884e+01
4.460000000000000000e+02 1.673753668049748100e+01
4.470000000000000000e+02 3.359835929460581383e+01
4.480000000000000000e+02 2.371647970954357376e+01
4.490000000000000000e+02 4.104806360995842596e+01
4.500000000000000000e+02 5.800725601659754460e+01
4.510000000000000000e+02 4.232045248962664630e+01
4.520000000000000000e+02 2.082451448132793104e+01
4.530000000000000000e+02 2.176575466804972692e+01
4.540000000000000000e+02 3.814350504149368959e+01
4.550000000000000000e+02 3.089848429460581514e+01
4.560000000000000000e+02 6.037997846473174945e+00
4.570000000000000000e+02 1.716872219916989195e+01
4.580000000000000000e+02 2.139484676348546088e+01
4.590000000000000000e+02 1.883051112033202301e+01
4.600000000000000000e+02 1.623845356846473464e+01
4.610000000000000000e+02 2.157244282157682846e+01
4.620000000000000000e+02 3.796802475103735475e+01
4.630000000000000000e+02 3.719590043568464210e+01
4.640000000000000000e+02 3.970369933609952540e+01
4.650000000000000000e+02 4.067413634854774784e+01
4.660000000000000000e+02 3.368554676348552590e+01
4.670000000000000000e+02 2.292418448132780640e+01
4.680000000000000000e+02 2.091641540372672381e+01
4.690000000000000000e+02 1.776569334024900826e+01
4.700000000000000000e+02 2.114432022821566193e+01
4.710000000000000000e+02 2.659123738589208585e+01
4.720000000000000000e+02 2.470373910973083653e+01
4.730000000000000000e+02 2.648365800829892081e+01
4.740000000000000000e+02 5.139278004149395684e+01
4.750000000000000000e+02 6.266645560165969187e+01
4.760000000000000000e+02 4.564981821946127383e+01
4.770000000000000000e+02 1.631222981120348692e+01
4.780000000000000000e+02 4.570223219917012081e+00
4.790000000000000000e+02 1.368306155601658070e+01
4.800000000000000000e+02 2.664481219917014698e+01
4.810000000000000000e+02 2.412996887966815507e+01
4.820000000000000000e+02 7.413012290456514108e+00
4.830000000000000000e+02 1.719839871369313045e+00
4.840000000000000000e+02 5.083464701244780670e+00
4.850000000000000000e+02 2.170420093167601649e+00
4.860000000000000000e+02 1.453536846472956723e-01
4.870000000000000000e+02 3.565814898340275096e+00
4.880000000000000000e+02 4.315721428571394291e+00
4.890000000000000000e+02 1.366573987551874092e+00
4.900000000000000000e+02 4.999089564315311485e+00
4.910000000000000000e+02 1.966845887966800888e+01
4.920000000000000000e+02 2.460911622406634791e+01
4.930000000000000000e+02 2.804346508298755314e+00
4.940000000000000000e+02 1.046040145228213980e+00
4.950000000000000000e+02 1.273202341078835076e+01
4.960000000000000000e+02 9.771969823651492248e+00
4.970000000000000000e+02 9.386947523809801908e+00
4.980000000000000000e+02 1.523727991701242779e+01
4.990000000000000000e+02 3.595373759336007780e+00
5.000000000000000000e+02 1.422550410788390884e+01
5.010000000000000000e+02 1.632056285714280719e+01
5.020000000000000000e+02 1.206653641493781137e+01
5.030000000000000000e+02 9.160582269709513170e+00
5.040000000000000000e+02 2.273103116182573658e+01
5.050000000000000000e+02 2.267377745341616802e+01
5.060000000000000000e+02 2.381615834024897893e+01
5.070000000000000000e+02 1.727076705394183520e+01
5.080000000000000000e+02 7.488749568464727169e+00
5.090000000000000000e+02 2.096256395445186271e+01
5.100000000000000000e+02 6.078627232365193578e+01
5.110000000000000000e+02 4.659144829875459237e+01
5.120000000000000000e+02 4.554972871369229637e+01
5.130000000000000000e+02 5.104068831950174001e+01
5.140000000000000000e+02 2.053875568464729184e+01
5.150000000000000000e+02 3.294421327800964150e+01
5.160000000000000000e+02 7.592387435684651109e+01
5.170000000000000000e+02 9.459048064182182713e+01
5.180000000000000000e+02 8.372615647302814068e+01
5.190000000000000000e+02 7.591161943983341587e+01
5.200000000000000000e+02 1.115563925311213467e+02
5.210000000000000000e+02 1.152838491701245829e+02
5.220000000000000000e+02 9.944903734439847653e+01
5.230000000000000000e+02 1.117775297510379744e+02
5.240000000000000000e+02 1.323532269709544380e+02
5.250000000000000000e+02 1.031235564315348086e+02
5.260000000000000000e+02 1.174804714285713487e+02
5.270000000000000000e+02 1.506743292531132852e+02
5.280000000000000000e+02 1.640049937759335990e+02
5.290000000000000000e+02 1.621095197095437470e+02
5.300000000000000000e+02 1.667285246376812324e+02
5.310000000000000000e+02 1.707636298755185749e+02
5.320000000000000000e+02 1.738219161825729486e+02
5.330000000000000000e+02 2.004849589211612511e+02
5.340000000000000000e+02 2.173768431535271759e+02
5.350000000000000000e+02 2.072434529045642080e+02
5.360000000000000000e+02 2.087362066390040809e+02
5.370000000000000000e+02 2.451396000000008257e+02
5.380000000000000000e+02 2.452565582987558344e+02
5.390000000000000000e+02 2.415670966804981674e+02
5.400000000000000000e+02 2.564784999999999968e+02
5.410000000000000000e+02 2.757937178423229057e+02
5.420000000000000000e+02 2.863152018633539910e+02
5.430000000000000000e+02 2.789537232365144632e+02
5.440000000000000000e+02 3.182651049792533513e+02
5.450000000000000000e+02 3.369226004149385290e+02
5.460000000000000000e+02 2.999287242236024440e+02
5.470000000000000000e+02 3.086400946058093382e+02
5.480000000000000000e+02 3.255232605809124493e+02
5.490000000000000000e+02 3.154524556016592669e+02
5.500000000000000000e+02 2.991064402489629970e+02
5.510000000000000000e+02 2.969089120082814475e+02
5.520000000000000000e+02 3.000361935684647392e+02
5.530000000000000000e+02 2.791853421161835627e+02
5.540000000000000000e+02 2.922920744813279157e+02
5.550000000000000000e+02 3.068918753623185580e+02
5.560000000000000000e+02 3.154124398340250650e+02
5.570000000000000000e+02 3.213012958506225232e+02
5.580000000000000000e+02 3.095354141078836960e+02
5.590000000000000000e+02 2.914339626556017606e+02
5.600000000000000000e+02 3.049388487551857452e+02
5.610000000000000000e+02 3.083165556016592745e+02
5.620000000000000000e+02 2.994354344398337844e+02
5.630000000000000000e+02 3.140566692946061949e+02
5.640000000000000000e+02 3.248305921161825722e+02
5.650000000000000000e+02 3.068908340248972308e+02
5.660000000000000000e+02 3.084777294605810312e+02
5.670000000000000000e+02 3.254959989648027090e+02
5.680000000000000000e+02 3.283767989626549593e+02
5.690000000000000000e+02 3.066884522821576979e+02
5.700000000000000000e+02 3.099255288381742730e+02
5.710000000000000000e+02 3.035577780538302477e+02
5.720000000000000000e+02 2.835924045643162117e+02
5.730000000000000000e+02 2.829214182572622462e+02
5.740000000000000000e+02 3.118157211618255928e+02
5.750000000000000000e+02 2.964474618257255543e+02
5.760000000000000000e+02 2.808336566390041185e+02
5.770000000000000000e+02 2.733966651452283259e+02
5.780000000000000000e+02 2.817854510373445009e+02
5.790000000000000000e+02 2.759739817427396815e+02
5.800000000000000000e+02 2.107850159420271723e+02
5.810000000000000000e+02 2.219561900414933007e+02
5.820000000000000000e+02 2.483940282157678894e+02
5.830000000000000000e+02 2.307091381742743579e+02
5.840000000000000000e+02 1.956644494824013805e+02
5.850000000000000000e+02 1.944765294605812187e+02
5.860000000000000000e+02 2.068234381742737753e+02
5.870000000000000000e+02 1.964801226141074437e+02
5.880000000000000000e+02 1.825066549792533976e+02
5.890000000000000000e+02 1.744818286307054507e+02
5.900000000000000000e+02 1.695499609958505687e+02
5.910000000000000000e+02 1.687684564315350713e+02
5.920000000000000000e+02 1.917536651452284389e+02
5.930000000000000000e+02 1.681612526970961312e+02
5.940000000000000000e+02 1.533317923236514844e+02
5.950000000000000000e+02 1.532821755186722044e+02
5.960000000000000000e+02 1.480456182572610260e+02
5.970000000000000000e+02 1.396640460580914294e+02
5.980000000000000000e+02 1.507335116182570118e+02
5.990000000000000000e+02 1.452455203319498480e+02
6.000000000000000000e+02 1.360332086956522346e+02
6.010000000000000000e+02 1.321862736514522965e+02
6.020000000000000000e+02 1.279281624481327526e+02
6.030000000000000000e+02 1.140298012448135552e+02
6.040000000000000000e+02 7.447230089211569748e+01
6.050000000000000000e+02 5.539206726141090087e+01
6.060000000000000000e+02 7.284112564315483951e+01
6.070000000000000000e+02 8.365010165975115797e+01
6.080000000000000000e+02 5.505100377593466021e+01
6.090000000000000000e+02 7.745731599585033678e+01
6.100000000000000000e+02 4.568709479253249128e+01
6.110000000000000000e+02 1.723981495850583201e+01
6.120000000000000000e+02 4.721777203319765803e+00
6.130000000000000000e+02 1.353434726708071301e+00
6.140000000000000000e+02 1.874043676348577936e+00
6.150000000000000000e+02 1.381340639004149651e+01
6.160000000000000000e+02 8.403010157676195746e+00
6.170000000000000000e+02 1.031309146473008198e+01
6.180000000000000000e+02 2.067258417012451588e+01
6.190000000000000000e+02 1.794996273858921754e+01
6.200000000000000000e+02 2.285085358921196885e+01
6.210000000000000000e+02 4.124011412863073645e+01
6.220000000000000000e+02 2.055509029045730429e+01
6.230000000000000000e+02 1.052695697095453298e+01
6.240000000000000000e+02 8.913719726141671629e+00
6.250000000000000000e+02 8.537160385892162751e+00
6.260000000000000000e+02 7.346270470954363141e+00
6.270000000000000000e+02 1.359304149377600979e+01
6.280000000000000000e+02 1.393247456431532605e+01
6.290000000000000000e+02 2.908748139004156741e+01
6.300000000000000000e+02 4.805204896265581027e+01
6.310000000000000000e+02 4.317182680497936786e+01
6.320000000000000000e+02 3.875707721991731347e+01
6.330000000000000000e+02 9.662835742738556633e+01
6.340000000000000000e+02 1.135338869294608344e+02
6.350000000000000000e+02 1.209380655601665779e+02
6.360000000000000000e+02 1.410358761410785746e+02
6.370000000000000000e+02 1.512658840248966214e+02
6.380000000000000000e+02 1.626546033195021153e+02
6.390000000000000000e+02 1.807102273858926651e+02
6.400000000000000000e+02 2.089569323651455193e+02
6.410000000000000000e+02 2.010208058091279781e+02
6.420000000000000000e+02 1.762665569358181301e+02
6.430000000000000000e+02 1.968618653526968671e+02
6.440000000000000000e+02 2.057048529045646887e+02
6.450000000000000000e+02 2.230577458506223252e+02
6.460000000000000000e+02 2.246825626556020836e+02
6.470000000000000000e+02 2.183793315352695856e+02
6.480000000000000000e+02 2.141573066390044175e+02
6.490000000000000000e+02 2.090755012448135233e+02
6.500000000000000000e+02 2.214689186721990382e+02
6.510000000000000000e+02 2.238804813278007657e+02
6.520000000000000000e+02 2.243094981327800781e+02
6.530000000000000000e+02 2.224558437759338574e+02
6.540000000000000000e+02 2.145492414937756962e+02
6.550000000000000000e+02 2.107618431535268257e+02
6.560000000000000000e+02 2.381404112033190188e+02
6.570000000000000000e+02 2.285788460580913863e+02
6.580000000000000000e+02 2.423311178423224135e+02
6.590000000000000000e+02 2.604595458506224759e+02
6.600000000000000000e+02 2.658674470954352387e+02
6.610000000000000000e+02 2.878865464730294548e+02
6.620000000000000000e+02 2.635391385093168992e+02
6.630000000000000000e+02 2.675841236514511934e+02
6.640000000000000000e+02 2.953467269709546486e+02
6.650000000000000000e+02 3.221904456431527706e+02
6.660000000000000000e+02 3.406476178423239958e+02
6.670000000000000000e+02 3.599265373443981844e+02
6.680000000000000000e+02 3.659539919087135900e+02
6.690000000000000000e+02 3.941882230290453890e+02
6.700000000000000000e+02 4.053760141078839183e+02
6.710000000000000000e+02 4.160010983402490297e+02
6.720000000000000000e+02 4.588399033195004222e+02
6.730000000000000000e+02 5.162375975103749397e+02
6.740000000000000000e+02 5.318177058091284835e+02
6.750000000000000000e+02 5.279824103734439404e+02
6.760000000000000000e+02 5.348279585062241495e+02
6.770000000000000000e+02 5.449245537344397690e+02
6.780000000000000000e+02 5.568178381742743568e+02
6.790000000000000000e+02 5.914403846473011299e+02
6.800000000000000000e+02 6.397740307053942388e+02
6.810000000000000000e+02 6.566615464730290341e+02
6.820000000000000000e+02 6.718709037344397075e+02
6.830000000000000000e+02 6.827061427385892785e+02
6.840000000000000000e+02 6.876763782608695692e+02
6.850000000000000000e+02 7.099861228215777373e+02
6.860000000000000000e+02 7.547143537344391007e+02
6.870000000000000000e+02 7.351468439834012543e+02
6.880000000000000000e+02 7.461444742738591458e+02
6.890000000000000000e+02 7.428761149377610309e+02
6.900000000000000000e+02 7.258286460580917492e+02
6.910000000000000000e+02 7.440922356846482444e+02
6.920000000000000000e+02 7.146100419087135833e+02
6.930000000000000000e+02 7.174521773858920142e+02
6.940000000000000000e+02 7.032027543568464125e+02
6.950000000000000000e+02 6.731574499999999261e+02
6.960000000000000000e+02 6.614661749482403366e+02
6.970000000000000000e+02 6.661574186721985598e+02
6.980000000000000000e+02 6.113751456431548377e+02
6.990000000000000000e+02 5.607865871369278921e+02
7.000000000000000000e+02 5.772353066390035110e+02
7.010000000000000000e+02 5.471044651452308472e+02
7.020000000000000000e+02 4.848919937759333152e+02
7.030000000000000000e+02 4.672562904564321684e+02
7.040000000000000000e+02 4.495176105590061297e+02
7.050000000000000000e+02 4.293419049792533428e+02
7.060000000000000000e+02 3.813576568464721959e+02
7.070000000000000000e+02 3.428283522821576526e+02
7.080000000000000000e+02 3.190678120331948548e+02
7.090000000000000000e+02 2.953894082987545175e+02
7.100000000000000000e+02 2.679997997925320306e+02
7.110000000000000000e+02 2.214183437759321009e+02
7.120000000000000000e+02 2.197794883817425671e+02
7.130000000000000000e+02 2.087359623188413593e+02
7.140000000000000000e+02 1.964042597510373298e+02
7.150000000000000000e+02 1.963066066390042579e+02
7.160000000000000000e+02 1.867370275362317784e+02
7.170000000000000000e+02 1.777230574688798583e+02
7.180000000000000000e+02 1.495659489626548861e+02
7.190000000000000000e+02 1.346926529045643406e+02
7.200000000000000000e+02 1.288028236514521438e+02
7.210000000000000000e+02 1.307525473029051284e+02
7.220000000000000000e+02 1.378436456431538488e+02
7.230000000000000000e+02 1.126076585062231175e+02
7.240000000000000000e+02 9.428470970954380448e+01
7.250000000000000000e+02 8.130411031120348753e+01
7.260000000000000000e+02 7.680557755186721636e+01
7.270000000000000000e+02 7.735946018672198932e+01
7.280000000000000000e+02 7.685909551867220557e+01
7.290000000000000000e+02 7.611370937759350852e+01
7.300000000000000000e+02 5.909460381742695034e+01
7.310000000000000000e+02 5.328285788381742805e+01
7.320000000000000000e+02 4.867967680497906713e+01
7.330000000000000000e+02 4.425091892116181214e+01
7.340000000000000000e+02 4.659627873443958634e+01
7.350000000000000000e+02 4.832074325726078712e+01
7.360000000000000000e+02 2.299055705394217952e+01
7.370000000000000000e+02 2.753511396265616185e+01
7.380000000000000000e+02 2.187498068322972244e+01
7.390000000000000000e+02 2.521163987551842567e+01
7.400000000000000000e+02 3.731051149377603338e+01
7.410000000000000000e+02 3.276058435684664261e+01
7.420000000000000000e+02 1.991850985507175409e+01
7.430000000000000000e+02 3.092287593361001008e+00
7.440000000000000000e+02 7.816201226141526348e+00
7.450000000000000000e+02 1.537475641078839494e+01
7.460000000000000000e+02 1.659933908713696837e+01
7.470000000000000000e+02 9.887811966804260777e+00
7.480000000000000000e+02 3.120708809128671657e+00
7.490000000000000000e+02 9.634344195020503321e+00
7.500000000000000000e+02 3.070678103734453401e+01
7.510000000000000000e+02 1.125935736514525054e+01
7.520000000000000000e+02 3.680489877593420545e+01
7.530000000000000000e+02 3.426875188796775262e+01
7.540000000000000000e+02 2.075109788819163192e+00
7.550000000000000000e+02 1.492249526970951123e+01
7.560000000000000000e+02 6.154098983401982359e+00
7.570000000000000000e+02 4.640321958506184785e+00
7.580000000000000000e+02 7.001805652173106465e-01
7.590000000000000000e+02 2.292684856846483044e+00
7.600000000000000000e+02 7.440376072613891445e+00
7.610000000000000000e+02 1.584503165975104366e+01
7.620000000000000000e+02 8.698787419087194550e+00
7.630000000000000000e+02 9.660326639003963933e+00
7.640000000000000000e+02 1.331857609958511723e+01
7.650000000000000000e+02 1.474294676348546140e+01
7.660000000000000000e+02 1.190579908713675650e+01
7.670000000000000000e+02 8.874651550724628635e+00
7.680000000000000000e+02 1.845242491701203491e+01
7.690000000000000000e+02 2.174935446058092126e+01
7.700000000000000000e+02 2.868544937759360991e+01
7.710000000000000000e+02 1.012355878838142331e+01
7.720000000000000000e+02 3.948023087136889320e+00
7.730000000000000000e+02 1.503360481327814568e+01
7.740000000000000000e+02 2.514056464730285612e+01
7.750000000000000000e+02 2.228235475103796759e+01
7.760000000000000000e+02 5.067262058091623445e+00
7.770000000000000000e+02 6.454124433609782052e+00
7.780000000000000000e+02 1.686986124481344262e+01
7.790000000000000000e+02 2.214053464730288212e+01
7.800000000000000000e+02 2.260719369294628933e+01
7.810000000000000000e+02 1.313503912863068379e+01
7.820000000000000000e+02 2.924112423236447711e+01
7.830000000000000000e+02 2.344797398340198669e+01
7.840000000000000000e+02 4.274064097510503757e+00
7.850000000000000000e+02 6.601354261411389146e+00
7.860000000000000000e+02 3.344202199170096179e+01
7.870000000000000000e+02 4.689065728778446385e+01
7.880000000000000000e+02 3.276923692946037647e+01
7.890000000000000000e+02 2.763370663900420965e+01
7.900000000000000000e+02 2.880405020746886535e+01
7.910000000000000000e+02 1.525842854771852330e+01
7.920000000000000000e+02 1.171472940248932915e+01
7.930000000000000000e+02 2.843670941908719030e+01
7.940000000000000000e+02 3.495788744813287252e+01
7.950000000000000000e+02 1.998605639004134815e+01
7.960000000000000000e+02 2.716266834368508398e+01
7.970000000000000000e+02 4.038204634854786690e+01
7.980000000000000000e+02 3.449225186722011927e+01
7.990000000000000000e+02 2.307917228215765348e+01
8.000000000000000000e+02 1.769510565217389342e+01
8.010000000000000000e+02 1.075508487759297971e+01
8.020000000000000000e+02 2.695169070539450829e+01
8.030000000000000000e+02 3.027475080912870453e+01
8.040000000000000000e+02 2.721266414937763756e+01
8.050000000000000000e+02 1.494118020746881825e+01
8.060000000000000000e+02 1.379005398340214938e+01
8.070000000000000000e+02 2.578966103734440907e+01
8.080000000000000000e+02 1.416664012422367414e+01
8.090000000000000000e+02 1.832756390041516426e+01
8.100000000000000000e+02 9.374183796680586767e+00
8.110000000000000000e+02 8.262601452282314796e+00
8.120000000000000000e+02 6.631427510373270273e+00
8.130000000000000000e+02 4.688087053941121241e-01
8.140000000000000000e+02 1.532648676348639549e+00
8.150000000000000000e+02 7.347017215767523979e+00
8.160000000000000000e+02 4.280057333333504133e+00
8.170000000000000000e+02 2.443390522821583843e+01
8.180000000000000000e+02 2.141330168049810823e+01
8.190000000000000000e+02 1.034282078838173469e+01
8.200000000000000000e+02 1.885828566390011574e+01
8.210000000000000000e+02 3.422012539419133503e+01
8.220000000000000000e+02 3.370260053941917988e+01
8.230000000000000000e+02 1.369503203319403895e+01
8.240000000000000000e+02 1.348647908713689070e+01
8.250000000000000000e+02 1.893758690871338146e+01
8.260000000000000000e+02 3.938951292531192649e+01
8.270000000000000000e+02 4.942040759336213540e+01
8.280000000000000000e+02 3.139624128630770272e+01
8.290000000000000000e+02 4.971446509316776030e+01
8.300000000000000000e+02 2.457195373443974518e+01
8.310000000000000000e+02 1.823124356846476601e+01
8.320000000000000000e+02 1.919056970954356700e+01
8.330000000000000000e+02 3.058616341614982304e+01
8.340000000000000000e+02 2.657775176348588886e+01
8.350000000000000000e+02 4.379102334024643994e+00
8.360000000000000000e+02 3.305129211618243801e+01
8.370000000000000000e+02 1.879333763485494657e+01
8.380000000000000000e+02 2.038345286307077231e+01
8.390000000000000000e+02 3.122744473029028001e+01
8.400000000000000000e+02 2.111228423236437024e+01
8.410000000000000000e+02 1.423300487759340882e+01
8.420000000000000000e+02 2.742043518672164737e+01
8.430000000000000000e+02 7.071378319502044540e+00
8.440000000000000000e+02 1.926793342323657043e+01
8.450000000000000000e+02 1.361243279503068848e+01
8.460000000000000000e+02 1.095985761825721561e+01
8.470000000000000000e+02 2.068671531120398299e+01
8.480000000000000000e+02 2.637412887966806352e+01
8.490000000000000000e+02 2.164740746887946088e+01
8.500000000000000000e+02 2.049673566390038104e+01
8.510000000000000000e+02 1.780078429460569822e+01
8.520000000000000000e+02 2.324489257261416597e+01
8.530000000000000000e+02 2.109269908713704922e+01
8.540000000000000000e+02 1.752013531120330825e+01
8.550000000000000000e+02 2.075727149377600966e+01
8.560000000000000000e+02 2.717724576763491484e+01
8.570000000000000000e+02 2.253789892116157390e+01
8.580000000000000000e+02 2.331460037267213625e+00
8.590000000000000000e+02 8.797435161826411942e+00
8.600000000000000000e+02 1.257738906639004739e+01
8.610000000000000000e+02 2.258768273858853348e+01
8.620000000000000000e+02 1.622734956521684069e+01
8.630000000000000000e+02 8.103447730290238127e+00
8.640000000000000000e+02 3.565022365145179606e+01
8.650000000000000000e+02 1.726879991701234118e+01
8.660000000000000000e+02 2.786774950207472656e+01
8.670000000000000000e+02 1.922382792531109175e+01
8.680000000000000000e+02 1.048756476556026662e+01
8.690000000000000000e+02 9.409160692946063165e+00
8.700000000000000000e+02 1.759370370600358058e+01
8.710000000000000000e+02 2.633701087136946839e+01
8.720000000000000000e+02 1.034742376763489169e+01
8.730000000000000000e+02 1.982685091286278833e+01
8.740000000000000000e+02 6.051436489626572879e+00
8.750000000000000000e+02 7.513088475103380404e+00
8.760000000000000000e+02 2.868339896265649713e+01
8.770000000000000000e+02 2.495329326763590672e+01
8.780000000000000000e+02 9.650189885892356045e+00
8.790000000000000000e+02 9.271009701244793177e+00
8.800000000000000000e+02 2.688101941908709591e+01
8.810000000000000000e+02 1.306039758506198822e+01
8.820000000000000000e+02 1.248043908713668770e+01
8.830000000000000000e+02 4.757686520845052058e+00
8.840000000000000000e+02 9.598160219916742619e+00
8.850000000000000000e+02 1.832554678423266381e+01
8.860000000000000000e+02 3.093255813278001032e+00
8.870000000000000000e+02 2.210679807453402645e+01
8.880000000000000000e+02 1.853393950207444973e+01
8.890000000000000000e+02 1.452756796680503903e+01
8.900000000000000000e+02 1.091356842323633636e+01
8.910000000000000000e+02 1.952440740663909580e+01
8.920000000000000000e+02 2.261920813278094755e+01
8.930000000000000000e+02 6.242163255186573778e+00
8.940000000000000000e+02 5.343546441907669475e+00
8.950000000000000000e+02 3.346284921161837644e+01
8.960000000000000000e+02 3.972537659751042582e+01
8.970000000000000000e+02 2.407158564315359328e+01
8.980000000000000000e+02 2.779776394190867350e+01
8.990000000000000000e+02 2.843168403726705762e+01
9.000000000000000000e+02 1.355806778008276403e+01
9.010000000000000000e+02 8.569376197095587955e+00
9.020000000000000000e+02 3.701378302904632545e+00
9.030000000000000000e+02 2.686453589211578930e+01
9.040000000000000000e+02 2.474922767634908283e+01
9.050000000000000000e+02 1.322090063070526789e+01
9.060000000000000000e+02 5.500293668049885731e+00
9.070000000000000000e+02 9.691928456431826433e+00
9.080000000000000000e+02 2.036874707468879464e+01
9.090000000000000000e+02 2.291709595435691682e+01
9.100000000000000000e+02 3.067813232365145382e+01
9.110000000000000000e+02 2.252444228215768618e+01
9.120000000000000000e+02 2.898657407867518998e+01
9.130000000000000000e+02 3.299738178423241663e+01
9.140000000000000000e+02 2.417034634854718789e+01
9.150000000000000000e+02 1.291919883817442916e+01
9.160000000000000000e+02 9.105629726708130534e+00
9.170000000000000000e+02 1.384811313278018119e+01
9.180000000000000000e+02 2.670455168049816308e+01
9.190000000000000000e+02 1.683063558091268419e+01
9.200000000000000000e+02 1.193683975155266630e+01
9.210000000000000000e+02 2.707223464730335749e+01
9.220000000000000000e+02 4.005451008298755511e+01
9.230000000000000000e+02 3.727381950207464456e+01
9.240000000000000000e+02 3.119576296066239252e+01
9.250000000000000000e+02 2.329557367219931052e+01
9.260000000000000000e+02 2.009913114107872900e+01
9.270000000000000000e+02 1.539990136929474218e+01
9.280000000000000000e+02 5.768291666666671702e+00
9.290000000000000000e+02 1.722317107883633902e+00
9.300000000000000000e+02 4.073277058091528957e+00
9.310000000000000000e+02 6.328325489627233402e+00
9.320000000000000000e+02 3.382413111801260897e+01
9.330000000000000000e+02 2.270768132780002091e+01
9.340000000000000000e+02 9.637586556016365380e-01
9.350000000000000000e+02 3.921676398340420810e+00
9.360000000000000000e+02 2.505995417012428117e+00
9.370000000000000000e+02 2.155813103734340785e+01
9.380000000000000000e+02 3.319706240663821006e+01
9.390000000000000000e+02 1.193046006224097511e+01
9.400000000000000000e+02 7.370489186722253727e+00
9.410000000000000000e+02 2.289195629399590359e+01
9.420000000000000000e+02 1.289793705394222378e+01
9.430000000000000000e+02 3.135573896265438698e+00
9.440000000000000000e+02 1.205813403319454480e+01
9.450000000000000000e+02 2.574160619047639997e+01
9.460000000000000000e+02 3.433548132780080664e+01
9.470000000000000000e+02 3.108193647302831408e+01
9.480000000000000000e+02 1.833661012448136773e+01
9.490000000000000000e+02 3.057901387163541074e+01
9.500000000000000000e+02 1.744189282157647725e+01
9.510000000000000000e+02 3.208539244813238867e+01
9.520000000000000000e+02 4.109225060165972820e+01
9.530000000000000000e+02 2.940276565217385496e+01
9.540000000000000000e+02 2.189400464730286444e+01
9.550000000000000000e+02 2.170161688796663668e+01
9.560000000000000000e+02 8.039420257261657099e+00
9.570000000000000000e+02 3.807975927536416005e+00
9.580000000000000000e+02 3.358670526970951897e+01
9.590000000000000000e+02 2.896366101659738135e+01
9.600000000000000000e+02 3.307201809128633130e+01
9.610000000000000000e+02 3.709060426501015684e+01
9.620000000000000000e+02 2.437823933609880456e+01
9.630000000000000000e+02 1.291918141078816262e+01
9.640000000000000000e+02 2.289602265560193572e+01
9.650000000000000000e+02 2.545460576763487381e+01
9.660000000000000000e+02 1.975689645228213465e+01
9.670000000000000000e+02 5.673429450207214231e+00
9.680000000000000000e+02 1.341492517904586956e-01
9.690000000000000000e+02 6.631917761411102674e+00
9.700000000000000000e+02 1.174122950310558267e+01
9.710000000000000000e+02 1.231857821576775791e+01
9.720000000000000000e+02 1.269496439834022716e+01
9.730000000000000000e+02 5.763154435684252341e+00
9.740000000000000000e+02 1.437381447204976581e+01
9.750000000000000000e+02 1.596621854771796656e+01
9.760000000000000000e+02 4.480665238589203625e+00
9.770000000000000000e+02 8.459652757261304501e+00
9.780000000000000000e+02 4.528099799171817708e+00
9.790000000000000000e+02 8.590106618257248527e+00
9.800000000000000000e+02 3.948322165975416631e+00
9.810000000000000000e+02 3.014829307054115670e+00
9.820000000000000000e+02 2.500526287784661150e+01
9.830000000000000000e+02 2.549103485477198916e+01
9.840000000000000000e+02 2.403373358921161795e+01
9.850000000000000000e+02 3.553233443983364737e+01
9.860000000000000000e+02 3.161980289855070225e+01
9.870000000000000000e+02 9.585335609958875125e+00
9.880000000000000000e+02 4.349048224066860868e+00
9.890000000000000000e+02 3.472353701244804824e+01
9.900000000000000000e+02 3.107926858921158342e+01
9.910000000000000000e+02 1.728121051867196556e+01
9.920000000000000000e+02 4.638652975104089471e+00
9.930000000000000000e+02 1.577878319502090676e-01
9.940000000000000000e+02 1.524977962655530206e+01
9.950000000000000000e+02 2.678181734989644269e+01
9.960000000000000000e+02 2.676626477178423613e+01
9.970000000000000000e+02 2.445282697095467483e+01
9.980000000000000000e+02 1.148532377593356202e+01
9.990000000000000000e+02 2.495009157349901940e+01
1.000000000000000000e+03 1.916945039419071506e+01
1.001000000000000000e+03 1.538552018672196553e+01
1.002000000000000000e+03 2.390804010373458866e+01
1.003000000000000000e+03 2.508539650103518781e+01
1.004000000000000000e+03 2.548868784232322682e+01
1.005000000000000000e+03 2.030679883817362352e+01
1.006000000000000000e+03 1.049018439833924621e+00
1.007000000000000000e+03 7.185632254658059992e+00
1.008000000000000000e+03 1.778251286307054713e+01
1.009000000000000000e+03 2.281849993775930940e+01
1.010000000000000000e+03 6.583136506223874918e+00
1.011000000000000000e+03 8.043895136929005929e+00
1.012000000000000000e+03 8.263986095435276624e+00
1.013000000000000000e+03 3.879339477178313622e+00
1.014000000000000000e+03 5.325535431535658226e+00
1.015000000000000000e+03 1.275361848447209745e+01
1.016000000000000000e+03 1.525508630705363089e+01
1.017000000000000000e+03 1.236095068464715041e+01
1.018000000000000000e+03 1.079043574688792262e+01
1.019000000000000000e+03 1.209551325726145876e+01
1.020000000000000000e+03 1.666127780082987897e+01
1.021000000000000000e+03 7.120993070539797465e+00
1.022000000000000000e+03 5.264279605809180751e+00
1.023000000000000000e+03 2.500461207468840286e+01
1.024000000000000000e+03 2.896503900414929333e+01
1.025000000000000000e+03 2.642930792531125306e+01
1.026000000000000000e+03 2.114991124481317186e+01
1.027000000000000000e+03 2.097393398340305382e+01
1.028000000000000000e+03 3.264838372670750744e+01
1.029000000000000000e+03 2.997504128630673037e+01
1.030000000000000000e+03 1.949270161825685221e+01
1.031000000000000000e+03 1.968341946058031411e+01
1.032000000000000000e+03 2.433378977225673268e+01
1.033000000000000000e+03 2.156454875518646830e+01
1.034000000000000000e+03 1.977607078838169130e+01
1.035000000000000000e+03 3.298421993775910011e+01
1.036000000000000000e+03 7.927825652172897364e+00
1.037000000000000000e+03 3.134085709544037002e+01
1.038000000000000000e+03 2.500772863070763918e+01
1.039000000000000000e+03 6.426661568464659524e+00
1.040000000000000000e+03 1.430175047619081141e+01
1.041000000000000000e+03 2.082913622406563192e+01
1.042000000000000000e+03 2.425223703319529633e+01
1.043000000000000000e+03 1.500711516597508854e+01
1.044000000000000000e+03 1.762130968879668913e+01
1.045000000000000000e+03 6.976283854772191262e+00
1.046000000000000000e+03 1.995849091286321908e+01
1.047000000000000000e+03 2.321449473028960853e+01
1.048000000000000000e+03 2.278423535269683953e+01
1.049000000000000000e+03 1.863284665975136178e+01
1.050000000000000000e+03 4.648211574688657421e+00
1.051000000000000000e+03 9.649237636929413497e+00
1.052000000000000000e+03 4.286979473028580401e+00
1.053000000000000000e+03 4.598990286307628850e+00
1.054000000000000000e+03 3.247501074688943845e+01
1.055000000000000000e+03 3.919003099585122385e+01
1.056000000000000000e+03 2.411730979253151830e+01
1.057000000000000000e+03 2.301752509316852624e+01
1.058000000000000000e+03 2.687495414937729521e+01
1.059000000000000000e+03 1.803260375518665626e+01
1.060000000000000000e+03 2.415497010373457698e+01
1.061000000000000000e+03 2.968670913043440152e+01
1.062000000000000000e+03 1.291808278008346811e+01
1.063000000000000000e+03 3.450405767634826759e+01
1.064000000000000000e+03 4.066389767634837682e+01
1.065000000000000000e+03 2.944573855072582091e+01
1.066000000000000000e+03 2.076148964730299085e+01
1.067000000000000000e+03 1.990382373443990005e+01
1.068000000000000000e+03 2.063961076763461833e+01
1.069000000000000000e+03 1.290432013043644233e+01
1.070000000000000000e+03 5.039893178423365150e+00
1.071000000000000000e+03 3.229553253112085542e+01
1.072000000000000000e+03 1.469163381742702512e+01
1.073000000000000000e+03 1.122927883817398609e+01
1.074000000000000000e+03 2.237409585062287221e+01
1.075000000000000000e+03 1.247616399169888979e+01
1.076000000000000000e+03 1.393826008713526576e+01
1.077000000000000000e+03 1.105606543568471878e+01
1.078000000000000000e+03 1.191818652172957016e+00
1.079000000000000000e+03 2.726923701244665565e+01
1.080000000000000000e+03 1.206099539419065714e+01
1.081000000000000000e+03 1.954690709543541516e+01
1.082000000000000000e+03 5.814633242738272756e+00
1.083000000000000000e+03 1.174411575726076506e+01
1.084000000000000000e+03 2.145358601659754072e+01
1.085000000000000000e+03 1.157862784024758618e+01
1.086000000000000000e+03 5.039589362318087851e+00
1.087000000000000000e+03 2.123688817427360576e+01
1.088000000000000000e+03 3.166167759336050480e+01
1.089000000000000000e+03 1.709702377593394829e+01
1.090000000000000000e+03 2.386955377593313443e+01
1.091000000000000000e+03 2.559771784232368930e+01
1.092000000000000000e+03 3.077774373444035660e+01
1.093000000000000000e+03 3.043003161825689062e+01
1.094000000000000000e+03 4.037075086956505743e+01
1.095000000000000000e+03 3.798977402489522603e+01
1.096000000000000000e+03 2.527189709543637974e+01
1.097000000000000000e+03 3.245796883817304490e+01
1.098000000000000000e+03 4.284586136645878440e+01
1.099000000000000000e+03 1.861555037344395558e+01
1.100000000000000000e+03 3.921108184647175676e+01
1.101000000000000000e+03 4.468311879668051034e+01
1.102000000000000000e+03 3.566838334024841828e+01
1.103000000000000000e+03 4.103107954356748621e+01
1.104000000000000000e+03 3.559064705394228412e+01
1.105000000000000000e+03 1.665978493775853408e+01
1.106000000000000000e+03 1.985583124481490813e+01
1.107000000000000000e+03 3.966665217842322022e+01
1.108000000000000000e+03 3.742128307053933867e+01
1.109000000000000000e+03 2.980267450207398738e+01
1.110000000000000000e+03 2.487722883817334818e+01
1.111000000000000000e+03 3.727175024896269662e+01
1.112000000000000000e+03 1.648798682572489582e+01
1.113000000000000000e+03 3.615529746887971019e+00
1.114000000000000000e+03 1.804222506223934985e+01
1.115000000000000000e+03 2.947923757763976482e+01
1.116000000000000000e+03 2.668025910788335864e+01
1.117000000000000000e+03 1.400991788381900882e+01
1.118000000000000000e+03 3.234811379668014908e+00
1.119000000000000000e+03 1.729164238589261871e+01
1.120000000000000000e+03 1.475793531120247692e+01
1.121000000000000000e+03 2.452502236514479605e+01
1.122000000000000000e+03 3.193262626556006722e+01
1.123000000000000000e+03 1.955994505175953080e+01
1.124000000000000000e+03 2.680059091286224060e+01
1.125000000000000000e+03 1.831627865145241785e+01
1.126000000000000000e+03 1.020928783817506158e+01
1.127000000000000000e+03 2.614400118012429530e+01
1.128000000000000000e+03 2.541816730290525328e+01
1.129000000000000000e+03 4.663714663900201174e+00
1.130000000000000000e+03 1.473526348547799891e+01
1.131000000000000000e+03 1.605905112033196858e+01
1.132000000000000000e+03 1.715825182572616470e+01
1.133000000000000000e+03 2.531222228215830938e+01
1.134000000000000000e+03 2.054573533195048185e+01
1.135000000000000000e+03 2.434899908713655492e+01
1.136000000000000000e+03 2.992542481327793169e+01
1.137000000000000000e+03 2.662731207468855743e+01
1.138000000000000000e+03 2.190249244813288598e+01
1.139000000000000000e+03 1.764031443983401104e+01
1.140000000000000000e+03 5.085361134573989972e+00
1.141000000000000000e+03 1.241824271784199674e+01
1.142000000000000000e+03 4.763450883817421655e+00
1.143000000000000000e+03 1.704508904564359995e+01
1.144000000000000000e+03 1.821231333333352609e+01
1.145000000000000000e+03 2.528640041493726542e+01
1.146000000000000000e+03 2.836749792531118075e+01
1.147000000000000000e+03 1.852265962655521747e+01
1.148000000000000000e+03 1.787527923395266072e+01
1.149000000000000000e+03 2.530500134854782246e+01
1.150000000000000000e+03 2.049879404564519092e+01
1.151000000000000000e+03 4.830402151452238968e+01
1.152000000000000000e+03 2.530103448132897270e+01
1.153000000000000000e+03 1.288680037344407836e+01
1.154000000000000000e+03 2.848017771784384422e+01
1.155000000000000000e+03 2.090747933610103715e+01
1.156000000000000000e+03 6.052246336099727841e+00
1.157000000000000000e+03 2.067395501867464702e+01
1.158000000000000000e+03 2.470257248962754204e+01
1.159000000000000000e+03 1.808254197095404336e+01
1.160000000000000000e+03 2.466592641078829118e+01
1.161000000000000000e+03 5.093494908712877134e+00
1.162000000000000000e+03 4.223241950206112705e+00
1.163000000000000000e+03 2.406898991701244483e+01
1.164000000000000000e+03 1.108792076763462120e+01
1.165000000000000000e+03 2.135028221991582598e+01
1.166000000000000000e+03 2.734924118257263004e+01
1.167000000000000000e+03 2.623098097510360915e+01
1.168000000000000000e+03 6.569621587134153451e+00
1.169000000000000000e+03 3.974037422360785499e+00
1.170000000000000000e+03 1.642915132780102283e+01
1.171000000000000000e+03 2.277587091286335408e+01
1.172000000000000000e+03 1.686511535269801243e+01
1.173000000000000000e+03 2.083965817806152643e-01
1.174000000000000000e+03 2.059835313277973512e+01
1.175000000000000000e+03 1.024844842323559746e+01
1.176000000000000000e+03 3.819339387966242061e+00
1.177000000000000000e+03 2.175988925465857804e+01
1.178000000000000000e+03 1.128551037344174190e+01
1.179000000000000000e+03 3.218339224065882576e+00
1.180000000000000000e+03 2.716329759336193028e+00
1.181000000000000000e+03 1.636756217012633030e+01
1.182000000000000000e+03 3.678955165975119712e+01
1.183000000000000000e+03 2.001679603734484658e+01
1.184000000000000000e+03 1.229467396265538071e+01
1.185000000000000000e+03 3.438746659750977486e+00
1.186000000000000000e+03 2.220452941908580513e+01
1.187000000000000000e+03 3.827087000000000216e+01
1.188000000000000000e+03 7.241826145228252187e+00
1.189000000000000000e+03 3.392446093167464483e+01
1.190000000000000000e+03 2.292874957261502544e+01
1.191000000000000000e+03 1.767081321576861797e+01
1.192000000000000000e+03 1.467330913070484932e+01
1.193000000000000000e+03 7.999324767634964140e+00
1.194000000000000000e+03 1.645605979253095086e+01
1.195000000000000000e+03 6.962764419087680068e+00
1.196000000000000000e+03 2.153292112033076577e+01
1.197000000000000000e+03 2.253361497925349610e+01
1.198000000000000000e+03 7.809083809524374864e+00
1.199000000000000000e+03 1.113821925933395818e+01
1.200000000000000000e+03 2.348804616183533867e+00
1.201000000000000000e+03 1.844757892116196629e+01
1.202000000000000000e+03 3.263172498964797086e+01
1.203000000000000000e+03 1.992417618257437439e+01
1.204000000000000000e+03 1.032535653941890885e+01
1.205000000000000000e+03 2.777948360995995358e+01
1.206000000000000000e+03 3.731314720496843762e+01
1.207000000000000000e+03 1.950043414937732322e+01
1.208000000000000000e+03 2.744099103734424361e+01
1.209000000000000000e+03 9.356441950206415115e+00
1.210000000000000000e+03 1.561333719916882501e+01
1.211000000000000000e+03 3.712175593360994696e+01
1.212000000000000000e+03 8.221309883814928554e+00
1.213000000000000000e+03 6.330917066388984438e+00
1.214000000000000000e+03 2.064545390041460138e+01
1.215000000000000000e+03 2.347703890041480079e+01
1.216000000000000000e+03 2.312028284232383157e+01
1.217000000000000000e+03 1.919265562240785172e+01
1.218000000000000000e+03 1.266271240663884612e+01
1.219000000000000000e+03 1.313858784232124322e+01
1.220000000000000000e+03 9.728227269711094749e+00
1.221000000000000000e+03 2.012879460580833424e+01
1.222000000000000000e+03 2.333496875518635250e+01
1.223000000000000000e+03 5.601399321576419510e+00
1.224000000000000000e+03 1.410305652074510974e+01
1.225000000000000000e+03 1.640929817427381110e+01
1.226000000000000000e+03 3.385575163900646345e+01
1.227000000000000000e+03 3.653512231884142381e+01
1.228000000000000000e+03 2.815049896265559681e+01
1.229000000000000000e+03 2.614340647302883980e+01
1.230000000000000000e+03 2.585969734439911250e+01
1.231000000000000000e+03 3.231176469979325105e+01
1.232000000000000000e+03 2.342862147302869502e+01
1.233000000000000000e+03 1.667981157676523907e+01
1.234000000000000000e+03 4.333193724066274655e+01
1.235000000000000000e+03 2.986531797101460839e+01
1.236000000000000000e+03 3.864988419087213600e+01
1.237000000000000000e+03 2.993666153527041729e+01
1.238000000000000000e+03 3.134844780082941185e+01
1.239000000000000000e+03 2.480523510373421914e+01
1.240000000000000000e+03 3.264522917012648406e+01
1.241000000000000000e+03 3.624359790456544061e+01
1.242000000000000000e+03 3.559885031120304433e+01
1.243000000000000000e+03 4.892083618257169064e+01
1.244000000000000000e+03 2.995828639004326277e+01
1.245000000000000000e+03 2.020711352697041718e+01
1.246000000000000000e+03 3.127529257261371498e+01
1.247000000000000000e+03 7.650253161824553949e+00
1.248000000000000000e+03 1.037211509128598053e+01
1.249000000000000000e+03 1.121705553941909272e+01
1.250000000000000000e+03 2.565084280083102186e+01
1.251000000000000000e+03 2.885338485477201687e+01
1.252000000000000000e+03 1.552968236514555223e+01
1.253000000000000000e+03 2.958645165975239877e+01
1.254000000000000000e+03 3.856391099584951832e+01
1.255000000000000000e+03 1.470459026556164694e+01
1.256000000000000000e+03 3.122842775933807768e+00
1.257000000000000000e+03 7.582389510372310681e+00
1.258000000000000000e+03 3.371910398340440373e+00
1.259000000000000000e+03 1.193170933609933293e+01
1.260000000000000000e+03 1.649966914937749962e+01
1.261000000000000000e+03 1.672648390041504740e+01
1.262000000000000000e+03 5.215099572613963375e+01
1.263000000000000000e+03 2.985145074688755074e+01
1.264000000000000000e+03 1.861468518672226580e+01
1.265000000000000000e+03 2.265789043568436867e+01
1.266000000000000000e+03 2.333658172199171332e+01
1.267000000000000000e+03 7.522894429459233478e+00
1.268000000000000000e+03 8.284042389237308512e+00
1.269000000000000000e+03 2.859468053941918342e+01
1.270000000000000000e+03 2.350585398340223620e+01
1.271000000000000000e+03 1.925590228215830635e+01
1.272000000000000000e+03 2.948948311203199424e+01
1.273000000000000000e+03 4.155631589211619570e+01
1.274000000000000000e+03 3.844172506224018804e+01
1.275000000000000000e+03 3.122587126556015491e+01
1.276000000000000000e+03 4.069424740663854578e+01
1.277000000000000000e+03 4.070619055900604621e+01
1.278000000000000000e+03 4.238222261410831493e+01
1.279000000000000000e+03 4.379688709543568592e+01
1.280000000000000000e+03 2.196039568464745884e+01
1.281000000000000000e+03 6.145481207038931970e+00
1.282000000000000000e+03 2.230691495850389217e+01
1.283000000000000000e+03 3.944477454356859880e+01
1.284000000000000000e+03 2.101471562240516988e+01
1.285000000000000000e+03 7.057159390041715774e+00
1.286000000000000000e+03 3.016418883817326702e+01
1.287000000000000000e+03 4.248175340248970144e+01
1.288000000000000000e+03 4.533289809128604020e+01
1.289000000000000000e+03 2.477482630705546285e+01
1.290000000000000000e+03 6.298253404564477798e+00
1.291000000000000000e+03 2.145114547717935949e+01
1.292000000000000000e+03 3.545873215770136255e+00
1.293000000000000000e+03 0.000000000000000000e+00
1.294000000000000000e+03 0.000000000000000000e+00
1.295000000000000000e+03 0.000000000000000000e+00
1.296000000000000000e+03 0.000000000000000000e+00
1.297000000000000000e+03 0.000000000000000000e+00
1.298000000000000000e+03 0.000000000000000000e+00
1.299000000000000000e+03 0.000000000000000000e+00
1.300000000000000000e+03 0.000000000000000000e+00
1.301000000000000000e+03 0.000000000000000000e+00
1.302000000000000000e+03 0.000000000000000000e+00
1.303000000000000000e+03 0.000000000000000000e+00
1.304000000000000000e+03 0.000000000000000000e+00
1.305000000000000000e+03 0.000000000000000000e+00
1.306000000000000000e+03 0.000000000000000000e+00
1.307000000000000000e+03 0.000000000000000000e+00
1.308000000000000000e+03 0.000000000000000000e+00
1.309000000000000000e+03 0.000000000000000000e+00
1.310000000000000000e+03 0.000000000000000000e+00
1.311000000000000000e+03 0.000000000000000000e+00
1.312000000000000000e+03 0.000000000000000000e+00
1.313000000000000000e+03 0.000000000000000000e+00
1.314000000000000000e+03 0.000000000000000000e+00
1.315000000000000000e+03 0.000000000000000000e+00
1.316000000000000000e+03 0.000000000000000000e+00
1.317000000000000000e+03 0.000000000000000000e+00
1.318000000000000000e+03 0.000000000000000000e+00
1.319000000000000000e+03 0.000000000000000000e+00
1.320000000000000000e+03 0.000000000000000000e+00
1.321000000000000000e+03 0.000000000000000000e+00
1.322000000000000000e+03 0.000000000000000000e+00
1.323000000000000000e+03 0.000000000000000000e+00
1.324000000000000000e+03 0.000000000000000000e+00
1.325000000000000000e+03 0.000000000000000000e+00
1.326000000000000000e+03 0.000000000000000000e+00
1.327000000000000000e+03 0.000000000000000000e+00
1.328000000000000000e+03 0.000000000000000000e+00
1.329000000000000000e+03 0.000000000000000000e+00
1.330000000000000000e+03 0.000000000000000000e+00
1.331000000000000000e+03 0.000000000000000000e+00
1.332000000000000000e+03 0.000000000000000000e+00
1.333000000000000000e+03 0.000000000000000000e+00
1.334000000000000000e+03 0.000000000000000000e+00
1.335000000000000000e+03 0.000000000000000000e+00
1.336000000000000000e+03 0.000000000000000000e+00
1.337000000000000000e+03 0.000000000000000000e+00
1.338000000000000000e+03 0.000000000000000000e+00
1.339000000000000000e+03 0.000000000000000000e+00
1.340000000000000000e+03 0.000000000000000000e+00
1.341000000000000000e+03 0.000000000000000000e+00
1.342000000000000000e+03 0.000000000000000000e+00
1.343000000000000000e+03 0.000000000000000000e+00
1.344000000000000000e+03 0.000000000000000000e+00
1.345000000000000000e+03 0.000000000000000000e+00
1.346000000000000000e+03 0.000000000000000000e+00
1.347000000000000000e+03 0.000000000000000000e+00
1.348000000000000000e+03 0.000000000000000000e+00
1.349000000000000000e+03 0.000000000000000000e+00
1.350000000000000000e+03 0.000000000000000000e+00
1.351000000000000000e+03 0.000000000000000000e+00
1.352000000000000000e+03 0.000000000000000000e+00
1.353000000000000000e+03 0.000000000000000000e+00
1.354000000000000000e+03 0.000000000000000000e+00
1.355000000000000000e+03 0.000000000000000000e+00
1.356000000000000000e+03 0.000000000000000000e+00
1.357000000000000000e+03 0.000000000000000000e+00
1.358000000000000000e+03 0.000000000000000000e+00
1.359000000000000000e+03 0.000000000000000000e+00
1.360000000000000000e+03 0.000000000000000000e+00
1.361000000000000000e+03 0.000000000000000000e+00
1.362000000000000000e+03 0.000000000000000000e+00
1.363000000000000000e+03 0.000000000000000000e+00
1.364000000000000000e+03 0.000000000000000000e+00
1.365000000000000000e+03 0.000000000000000000e+00
1.366000000000000000e+03 0.000000000000000000e+00
1.367000000000000000e+03 0.000000000000000000e+00
1.368000000000000000e+03 0.000000000000000000e+00
1.369000000000000000e+03 0.000000000000000000e+00
1.370000000000000000e+03 0.000000000000000000e+00
1.371000000000000000e+03 0.000000000000000000e+00
1.372000000000000000e+03 0.000000000000000000e+00
1.373000000000000000e+03 0.000000000000000000e+00
1.374000000000000000e+03 0.000000000000000000e+00
1.375000000000000000e+03 0.000000000000000000e+00
1.376000000000000000e+03 0.000000000000000000e+00
1.377000000000000000e+03 0.000000000000000000e+00
1.378000000000000000e+03 0.000000000000000000e+00
1.379000000000000000e+03 0.000000000000000000e+00
1.380000000000000000e+03 0.000000000000000000e+00
1.381000000000000000e+03 0.000000000000000000e+00
1.382000000000000000e+03 0.000000000000000000e+00
1.383000000000000000e+03 0.000000000000000000e+00
1.384000000000000000e+03 0.000000000000000000e+00
1.385000000000000000e+03 0.000000000000000000e+00
1.386000000000000000e+03 0.000000000000000000e+00
1.387000000000000000e+03 0.000000000000000000e+00
1.388000000000000000e+03 0.000000000000000000e+00
1.389000000000000000e+03 0.000000000000000000e+00
1.390000000000000000e+03 0.000000000000000000e+00
1.391000000000000000e+03 0.000000000000000000e+00
1.392000000000000000e+03 0.000000000000000000e+00
1.393000000000000000e+03 0.000000000000000000e+00
1.394000000000000000e+03 0.000000000000000000e+00
1.395000000000000000e+03 0.000000000000000000e+00
1.396000000000000000e+03 0.000000000000000000e+00
1.397000000000000000e+03 0.000000000000000000e+00
1.398000000000000000e+03 0.000000000000000000e+00
1.399000000000000000e+03 0.000000000000000000e+00
1.400000000000000000e+03 0.000000000000000000e+00
1.401000000000000000e+03 0.000000000000000000e+00
1.402000000000000000e+03 0.000000000000000000e+00
1.403000000000000000e+03 0.000000000000000000e+00
1.404000000000000000e+03 0.000000000000000000e+00
1.405000000000000000e+03 0.000000000000000000e+00
1.406000000000000000e+03 0.000000000000000000e+00
1.407000000000000000e+03 0.000000000000000000e+00
1.408000000000000000e+03 0.000000000000000000e+00
1.409000000000000000e+03 0.000000000000000000e+00
1.410000000000000000e+03 0.000000000000000000e+00
1.411000000000000000e+03 0.000000000000000000e+00
1.412000000000000000e+03 0.000000000000000000e+00
1.413000000000000000e+03 0.000000000000000000e+00
1.414000000000000000e+03 0.000000000000000000e+00
1.415000000000000000e+03 0.000000000000000000e+00
1.416000000000000000e+03 0.000000000000000000e+00
1.417000000000000000e+03 0.000000000000000000e+00
1.418000000000000000e+03 0.000000000000000000e+00
1.419000000000000000e+03 0.000000000000000000e+00
1.420000000000000000e+03 0.000000000000000000e+00
1.421000000000000000e+03 0.000000000000000000e+00
1.422000000000000000e+03 0.000000000000000000e+00
1.423000000000000000e+03 0.000000000000000000e+00
1.424000000000000000e+03 0.000000000000000000e+00
1.425000000000000000e+03 0.000000000000000000e+00
1.426000000000000000e+03 0.000000000000000000e+00
1.427000000000000000e+03 0.000000000000000000e+00
1.428000000000000000e+03 0.000000000000000000e+00
1.429000000000000000e+03 0.000000000000000000e+00
1.430000000000000000e+03 0.000000000000000000e+00
1.431000000000000000e+03 0.000000000000000000e+00
1.432000000000000000e+03 0.000000000000000000e+00
1.433000000000000000e+03 0.000000000000000000e+00
1.434000000000000000e+03 0.000000000000000000e+00
1.435000000000000000e+03 0.000000000000000000e+00
1.436000000000000000e+03 0.000000000000000000e+00
1.437000000000000000e+03 0.000000000000000000e+00
1.438000000000000000e+03 0.000000000000000000e+00
1.439000000000000000e+03 0.000000000000000000e+00
1.440000000000000000e+03 0.000000000000000000e+00
1.441000000000000000e+03 0.000000000000000000e+00
1.442000000000000000e+03 0.000000000000000000e+00
1.443000000000000000e+03 0.000000000000000000e+00
1.444000000000000000e+03 0.000000000000000000e+00
1.445000000000000000e+03 0.000000000000000000e+00
1.446000000000000000e+03 0.000000000000000000e+00
1.447000000000000000e+03 0.000000000000000000e+00
1.448000000000000000e+03 0.000000000000000000e+00
1.449000000000000000e+03 0.000000000000000000e+00
1.450000000000000000e+03 0.000000000000000000e+00
1.451000000000000000e+03 0.000000000000000000e+00
1.452000000000000000e+03 0.000000000000000000e+00
1.453000000000000000e+03 0.000000000000000000e+00
1.454000000000000000e+03 0.000000000000000000e+00
1.455000000000000000e+03 0.000000000000000000e+00
1.456000000000000000e+03 0.000000000000000000e+00
1.457000000000000000e+03 0.000000000000000000e+00
1.458000000000000000e+03 0.000000000000000000e+00
1.459000000000000000e+03 0.000000000000000000e+00
1.460000000000000000e+03 0.000000000000000000e+00
1.461000000000000000e+03 0.000000000000000000e+00
1.462000000000000000e+03 0.000000000000000000e+00
1.463000000000000000e+03 0.000000000000000000e+00
1.464000000000000000e+03 0.000000000000000000e+00
1.465000000000000000e+03 0.000000000000000000e+00
1.466000000000000000e+03 0.000000000000000000e+00
1.467000000000000000e+03 0.000000000000000000e+00
1.468000000000000000e+03 0.000000000000000000e+00
1.469000000000000000e+03 0.000000000000000000e+00
1.470000000000000000e+03 0.000000000000000000e+00
1.471000000000000000e+03 0.000000000000000000e+00
1.472000000000000000e+03 0.000000000000000000e+00
1.473000000000000000e+03 0.000000000000000000e+00
1.474000000000000000e+03 0.000000000000000000e+00
1.475000000000000000e+03 0.000000000000000000e+00
1.476000000000000000e+03 0.000000000000000000e+00
1.477000000000000000e+03 0.000000000000000000e+00
1.478000000000000000e+03 0.000000000000000000e+00
1.479000000000000000e+03 0.000000000000000000e+00
1.480000000000000000e+03 0.000000000000000000e+00
1.481000000000000000e+03 0.000000000000000000e+00
1.482000000000000000e+03 0.000000000000000000e+00
1.483000000000000000e+03 0.000000000000000000e+00
1.484000000000000000e+03 0.000000000000000000e+00
1.485000000000000000e+03 0.000000000000000000e+00
1.486000000000000000e+03 0.000000000000000000e+00
1.487000000000000000e+03 0.000000000000000000e+00
1.488000000000000000e+03 0.000000000000000000e+00
1.489000000000000000e+03 0.000000000000000000e+00
1.490000000000000000e+03 0.000000000000000000e+00
1.491000000000000000e+03 0.000000000000000000e+00
1.492000000000000000e+03 0.000000000000000000e+00
1.493000000000000000e+03 0.000000000000000000e+00
1.494000000000000000e+03 0.000000000000000000e+00
1.495000000000000000e+03 0.000000000000000000e+00
1.496000000000000000e+03 0.000000000000000000e+00
1.497000000000000000e+03 0.000000000000000000e+00
1.498000000000000000e+03 0.000000000000000000e+00
1.499000000000000000e+03 0.000000000000000000e+00
1.500000000000000000e+03 0.000000000000000000e+00
