1.010000000000000000e+02 0.000000000000000000e+00
1.020000000000000000e+02 0.000000000000000000e+00
1.030000000000000000e+02 0.000000000000000000e+00
1.040000000000000000e+02 0.000000000000000000e+00
1.050000000000000000e+02 0.000000000000000000e+00
1.060000000000000000e+02 0.000000000000000000e+00
1.070000000000000000e+02 0.000000000000000000e+00
1.080000000000000000e+02 0.000000000000000000e+00
1.090000000000000000e+02 0.000000000000000000e+00
1.100000000000000000e+02 0.000000000000000000e+00
1.110000000000000000e+02 0.000000000000000000e+00
1.120000000000000000e+02 0.000000000000000000e+00
1.130000000000000000e+02 0.000000000000000000e+00
1.140000000000000000e+02 0.000000000000000000e+00
1.150000000000000000e+02 0.000000000000000000e+00
1.160000000000000000e+02 0.000000000000000000e+00
1.170000000000000000e+02 0.000000000000000000e+00
1.180000000000000000e+02 0.000000000000000000e+00
1.190000000000000000e+02 0.000000000000000000e+00
1.200000000000000000e+02 0.000000000000000000e+00
1.210000000000000000e+02 0.000000000000000000e+00
1.220000000000000000e+02 0.000000000000000000e+00
1.230000000000000000e+02 0.000000000000000000e+00
1.240000000000000000e+02 0.000000000000000000e+00
1.250000000000000000e+02 0.000000000000000000e+00
1.260000000000000000e+02 0.000000000000000000e+00
1.270000000000000000e+02 0.000000000000000000e+00
1.280000000000000000e+02 0.000000000000000000e+00
1.290000000000000000e+02 0.000000000000000000e+00
1.300000000000000000e+02 0.000000000000000000e+00
1.310000000000000000e+02 0.000000000000000000e+00
1.320000000000000000e+02 0.000000000000000000e+00
1.330000000000000000e+02 0.000000000000000000e+00
1.340000000000000000e+02 0.000000000000000000e+00
1.350000000000000000e+02 0.000000000000000000e+00
1.360000000000000000e+02 0.000000000000000000e+00
1.370000000000000000e+02 0.000000000000000000e+00
1.380000000000000000e+02 0.000000000000000000e+00
1.390000000000000000e+02 0.000000000000000000e+00
1.400000000000000000e+02 0.000000000000000000e+00
1.410000000000000000e+02 0.000000000000000000e+00
1.420000000000000000e+02 0.000000000000000000e+00
1.430000000000000000e+02 0.000000000000000000e+00
1.440000000000000000e+02 0.000000000000000000e+00
1.450000000000000000e+02 0.000000000000000000e+00
1.460000000000000000e+02 0.000000000000000000e+00
1.470000000000000000e+02 0.000000000000000000e+00
1.480000000000000000e+02 0.000000000000000000e+00
1.490000000000000000e+02 0.000000000000000000e+00
1.500000000000000000e+02 0.000000000000000000e+00
1.510000000000000000e+02 0.000000000000000000e+00
1.520000000000000000e+02 0.000000000000000000e+00
1.530000000000000000e+02 0.000000000000000000e+00
1.540000000000000000e+02 0.000000000000000000e+00
1.550000000000000000e+02 0.000000000000000000e+00
1.560000000000000000e+02 0.000000000000000000e+00
1.570000000000000000e+02 0.000000000000000000e+00
1.580000000000000000e+02 1.799276913503468009e-03
1.590000000000000000e+02 1.610776797344957711e-01
1.600000000000000000e+02 1.192768094151803460e-01
1.610000000000000000e+02 3.366481781787949434e-01
1.620000000000000000e+02 1.044699736776601773e+00
1.630000000000000000e+02 9.763268498548295371e-01
1.640000000000000000e+02 5.649711900020735200e-01
1.650000000000000000e+02 1.314700174631835417e-01
1.660000000000000000e+02 9.632537348423694801e-02
1.670000000000000000e+02 5.788392445550761822e-01
1.680000000000000000e+02 4.740191493466073824e-01
1.690000000000000000e+02 7.960041118025300566e-01
1.700000000000000000e+02 1.321939525202237675e+00
1.710000000000000000e+02 1.239671152457994197e+00
1.720000000000000000e+02 9.462009883865605264e-01
1.730000000000000000e+02 9.148941628292883710e-01
1.740000000000000000e+02 1.057637233354075113e+00
1.750000000000000000e+02 1.051004919328082599e+00
1.760000000000000000e+02 5.351245413814551544e-01
1.770000000000000000e+02 9.426247371914557860e-01
1.780000000000000000e+02 1.186106347158856655e+00
1.790000000000000000e+02 9.316958523127987224e-01
1.800000000000000000e+02 9.982168724331060838e-01
1.810000000000000000e+02 1.212378926171713722e+00
1.820000000000000000e+02 1.350307599668118419e+00
1.830000000000000000e+02 1.505148555278986278e+00
1.840000000000000000e+02 1.525383353380340257e+00
1.850000000000000000e+02 1.710826097075296870e+00
1.860000000000000000e+02 1.659473826177141786e+00
1.870000000000000000e+02 1.522337686579548821e+00
1.880000000000000000e+02 1.478591045633685042e+00
1.890000000000000000e+02 1.538044918481640932e+00
1.900000000000000000e+02 1.127608313005600493e+00
1.910000000000000000e+02 9.025828373781369374e-01
1.920000000000000000e+02 1.073951084214890273e+00
1.930000000000000000e+02 1.403396377929893468e+00
1.940000000000000000e+02 1.852222569383946249e+00
1.950000000000000000e+02 1.790150412362581323e+00
1.960000000000000000e+02 1.149286756896918726e+00
1.970000000000000000e+02 3.954251062020271990e-01
1.980000000000000000e+02 5.444637392657144526e-01
1.990000000000000000e+02 9.174799912881141939e-01
2.000000000000000000e+02 7.628745183571931099e-01
2.010000000000000000e+02 4.964613525508008163e-01
2.020000000000000000e+02 1.238041049782201641e+00
2.030000000000000000e+02 3.562883478531418957e-01
2.040000000000000000e+02 3.545857189962670630e-01
2.050000000000000000e+02 2.152529234598631880e-01
2.060000000000000000e+02 7.335643430512472918e-02
2.070000000000000000e+02 3.109361968934034118e-02
2.080000000000000000e+02 2.079412700684492299e-01
2.090000000000000000e+02 1.894441868906889259e-01
2.100000000000000000e+02 1.249921192467560588e-01
2.110000000000000000e+02 3.729746063057463590e-01
2.120000000000000000e+02 2.550071543248292327e-01
2.130000000000000000e+02 1.578703702551338128e-01
2.140000000000000000e+02 1.541712103298071845e-01
2.150000000000000000e+02 1.111756009126725342e-01
2.160000000000000000e+02 1.129062133623726927e-01
2.170000000000000000e+02 1.112569481761054996e-01
2.180000000000000000e+02 7.204858825969577552e-02
2.190000000000000000e+02 7.868249638427909920e-02
2.200000000000000000e+02 1.672628568761670154e-01
2.210000000000000000e+02 1.259778905102681978e-01
2.220000000000000000e+02 3.711340249315616541e-02
2.230000000000000000e+02 8.745336108151850751e-02
2.240000000000000000e+02 1.230688371120042951e-02
2.250000000000000000e+02 2.113809564496050286e-01
2.260000000000000000e+02 3.094401468574984326e-01
2.270000000000000000e+02 2.720436614810187170e-01
2.280000000000000000e+02 2.481861790085057307e-01
2.290000000000000000e+02 5.469529811242479500e-01
2.300000000000000000e+02 6.463403833229622863e-01
2.310000000000000000e+02 5.275076614810214615e-01
2.320000000000000000e+02 4.149102277535786643e-01
2.330000000000000000e+02 5.089063163244141874e-01
2.340000000000000000e+02 4.515251953951466279e-01
2.350000000000000000e+02 4.925037317983806950e-01
2.360000000000000000e+02 6.245305982161392100e-01
2.370000000000000000e+02 8.142515681393907023e-01
2.380000000000000000e+02 1.143108529558182207e+00
2.390000000000000000e+02 9.514416614810237149e-01
2.400000000000000000e+02 9.797144243932819352e-01
2.410000000000000000e+02 9.915531084837133635e-01
2.420000000000000000e+02 4.515910895893820998e-01
2.430000000000000000e+02 4.939887361543234268e-01
2.440000000000000000e+02 6.354805239576845066e-01
2.450000000000000000e+02 8.235179158025736079e-01
2.460000000000000000e+02 1.018291047500518465e+00
2.470000000000000000e+02 1.012769026550508267e+00
2.480000000000000000e+02 9.719477351721276248e-01
2.490000000000000000e+02 1.085615956440574514e+00
2.500000000000000000e+02 1.271311010578718426e+00
2.510000000000000000e+02 1.381189284944006168e+00
2.520000000000000000e+02 1.506432417963077031e+00
2.530000000000000000e+02 1.413667555071559612e+00
2.540000000000000000e+02 1.150237498444305118e+00
2.550000000000000000e+02 1.161303717693422000e+00
2.560000000000000000e+02 2.086468696328559691e+00
2.570000000000000000e+02 1.888263205559006952e+00
2.580000000000000000e+02 1.488728313005598602e+00
2.590000000000000000e+02 1.473160324621448192e+00
2.600000000000000000e+02 1.835758004770800422e+00
2.610000000000000000e+02 1.994769775772663234e+00
2.620000000000000000e+02 2.182270983198508763e+00
2.630000000000000000e+02 2.155917977598014623e+00
2.640000000000000000e+02 2.116529210537235972e+00
2.650000000000000000e+02 2.523441835303883884e+00
2.660000000000000000e+02 2.232597316946699717e+00
2.670000000000000000e+02 2.535279051026743780e+00
2.680000000000000000e+02 2.849096838656151043e+00
2.690000000000000000e+02 2.620421991080687629e+00
2.700000000000000000e+02 2.828758106409453355e+00
2.710000000000000000e+02 3.221456661758602458e+00
2.720000000000000000e+02 3.181104517112633090e+00
2.730000000000000000e+02 3.074309104542623405e+00
2.740000000000000000e+02 3.547475798838656935e+00
2.750000000000000000e+02 3.773299542003734519e+00
2.760000000000000000e+02 3.939217431860610130e+00
2.770000000000000000e+02 4.139087221070099076e+00
2.780000000000000000e+02 4.353790958722258964e+00
2.790000000000000000e+02 4.484928961418793492e+00
2.800000000000000000e+02 4.602449162621860879e+00
2.810000000000000000e+02 4.658204650902303179e+00
2.820000000000000000e+02 4.792591499481440920e+00
2.830000000000000000e+02 5.006051864343497471e+00
2.840000000000000000e+02 4.916072182742169616e+00
2.850000000000000000e+02 5.061537064716861600e+00
2.860000000000000000e+02 5.541300975731170197e+00
2.870000000000000000e+02 5.933542536403234813e+00
2.880000000000000000e+02 5.773701901265303249e+00
2.890000000000000000e+02 5.507001547604231106e+00
2.900000000000000000e+02 6.054758866832601782e+00
2.910000000000000000e+02 6.687066049782197652e+00
2.920000000000000000e+02 6.891079008297035458e+00
2.930000000000000000e+02 6.988933340178387077e+00
2.940000000000000000e+02 6.612282161343840947e+00
2.950000000000000000e+02 6.685733968263853022e+00
2.960000000000000000e+02 7.099977836133585463e+00
2.970000000000000000e+02 7.304530718788884158e+00
2.980000000000000000e+02 7.080503338311550543e+00
2.990000000000000000e+02 7.114428113876790860e+00
3.000000000000000000e+02 6.859162079842390014e+00
3.010000000000000000e+02 6.645164110350542330e+00
3.020000000000000000e+02 7.057037014727237434e+00
3.030000000000000000e+02 6.865506527996681818e+00
3.040000000000000000e+02 6.685008578095832377e+00
3.050000000000000000e+02 6.740998498651729065e+00
3.060000000000000000e+02 7.046630337619244067e+00
3.070000000000000000e+02 7.466716669778056925e+00
3.080000000000000000e+02 6.788741482887373557e+00
3.090000000000000000e+02 6.791548754822655631e+00
3.100000000000000000e+02 6.921154000622276037e+00
3.110000000000000000e+02 6.269029896494505927e+00
3.120000000000000000e+02 5.299821281891714086e+00
3.130000000000000000e+02 5.353375406347236520e+00
3.140000000000000000e+02 5.861520029247047070e+00
3.150000000000000000e+02 5.959528095830729733e+00
3.160000000000000000e+02 5.411775262393684116e+00
3.170000000000000000e+02 5.072350859987550642e+00
3.180000000000000000e+02 4.930130548226511422e+00
3.190000000000000000e+02 4.869910018046049061e+00
3.200000000000000000e+02 4.825164037129225036e+00
3.210000000000000000e+02 4.665110716034029714e+00
3.220000000000000000e+02 3.728100810205363658e+00
3.230000000000000000e+02 3.686770061177927271e+00
3.240000000000000000e+02 3.770700140012447577e+00
3.250000000000000000e+02 3.504278789047915676e+00
3.260000000000000000e+02 3.517156920779759499e+00
3.270000000000000000e+02 3.629013434349720235e+00
3.280000000000000000e+02 3.195859627670608827e+00
3.290000000000000000e+02 2.759535624014930910e+00
3.300000000000000000e+02 2.802152686994400455e+00
3.310000000000000000e+02 2.897121165525824882e+00
3.320000000000000000e+02 2.835902804230606922e+00
3.330000000000000000e+02 2.372530824102868863e+00
3.340000000000000000e+02 2.035170510889864115e+00
3.350000000000000000e+02 2.363290833644473565e+00
3.360000000000000000e+02 2.158483132545121919e+00
3.370000000000000000e+02 1.604820310723904520e+00
3.380000000000000000e+02 1.488452287284790287e+00
3.390000000000000000e+02 1.750781872433104347e+00
3.400000000000000000e+02 1.644709183571880340e+00
3.410000000000000000e+02 1.196446810827628271e+00
3.420000000000000000e+02 1.211134490562121080e+00
3.430000000000000000e+02 1.423362889234596196e+00
3.440000000000000000e+02 1.474617379589297173e+00
3.450000000000000000e+02 1.312411235220908745e+00
3.460000000000000000e+02 8.269833057456993375e-01
3.470000000000000000e+02 6.085254240978841267e-01
3.480000000000000000e+02 7.685758205766468620e-01
3.490000000000000000e+02 1.059995711885501013e+00
3.500000000000000000e+02 1.063734595188718046e+00
3.510000000000000000e+02 9.207798811449875442e-01
3.520000000000000000e+02 7.669388942128175790e-01
3.530000000000000000e+02 6.190366034840331100e-01
3.540000000000000000e+02 4.710890074673279582e-01
3.550000000000000000e+02 4.643953820784089137e-01
3.560000000000000000e+02 8.239021430941491086e-01
3.570000000000000000e+02 6.247819628707865780e-01
3.580000000000000000e+02 5.426936527690354173e-02
3.590000000000000000e+02 1.669950126503526588e-01
3.600000000000000000e+02 4.451852800248823350e-01
3.610000000000000000e+02 3.325883254511552978e-01
3.620000000000000000e+02 3.243786560879485248e-01
3.630000000000000000e+02 4.094457062850042073e-01
3.640000000000000000e+02 2.709012702758756275e-01
3.650000000000000000e+02 3.751429769757316790e-01
3.660000000000000000e+02 2.665500157643637125e-01
3.670000000000000000e+02 2.628021991288110315e-01
3.680000000000000000e+02 3.172267554449267335e-01
3.690000000000000000e+02 1.815440404480382908e-01
3.700000000000000000e+02 9.242058137730709000e-02
3.710000000000000000e+02 1.713135117195474511e-02
3.720000000000000000e+02 9.991067641568363022e-02
3.730000000000000000e+02 1.227790908525197150e-01
3.740000000000000000e+02 5.359268716070252937e-03
3.750000000000000000e+02 2.665865212611512325e-01
3.760000000000000000e+02 1.450428622978123805e-01
3.770000000000000000e+02 4.387020553827033487e-01
3.780000000000000000e+02 4.059938288736723022e-01
3.790000000000000000e+02 5.908829643301559686e-01
3.800000000000000000e+02 1.403172835960406761e-01
3.810000000000000000e+02 2.139451381456108636e-01
3.820000000000000000e+02 3.968411717129820548e-01
3.830000000000000000e+02 2.485014109105974089e-01
3.840000000000000000e+02 3.536163698402815525e-01
3.850000000000000000e+02 4.853778133649308546e-02
3.860000000000000000e+02 2.010298002489165348e-01
3.870000000000000000e+02 2.445589286455073230e-01
3.880000000000000000e+02 4.764744662476820547e-02
3.890000000000000000e+02 2.098283356150182632e-01
3.900000000000000000e+02 1.664181387678892454e-01
3.910000000000000000e+02 1.337174592408212626e-01
3.920000000000000000e+02 1.029278905546572309e-01
3.930000000000000000e+02 1.466140992572157742e-01
3.940000000000000000e+02 3.689349834059327260e-01
3.950000000000000000e+02 9.677024897137617709e-02
3.960000000000000000e+02 3.798027598175092445e-02
3.970000000000000000e+02 6.968322697220485917e-02
3.980000000000000000e+02 5.397363199751125523e-02
3.990000000000000000e+02 1.914565688861209064e-02
4.000000000000000000e+02 2.192067871810839119e-01
4.010000000000000000e+02 4.691049197261977222e-01
4.020000000000000000e+02 6.655707274989625111e-01
4.030000000000000000e+02 6.764656002903912668e-01
4.040000000000000000e+02 3.450867286869931938e-01
4.050000000000000000e+02 3.449829338448791582e-01
4.060000000000000000e+02 6.060366658369693571e-01
4.070000000000000000e+02 3.734176660443740414e-01
4.080000000000000000e+02 1.091582661679809385e-01
4.090000000000000000e+02 4.321553117610309469e-01
4.100000000000000000e+02 7.861031667703840542e-01
4.110000000000000000e+02 4.767655622148509464e-01
4.120000000000000000e+02 2.847457432068019045e-01
4.130000000000000000e+02 4.424156446795259323e-01
4.140000000000000000e+02 3.255123687266699428e-01
4.150000000000000000e+02 3.727489493880933313e-01
4.160000000000000000e+02 3.930110777846920200e-01
4.170000000000000000e+02 4.586584090437675898e-01
4.180000000000000000e+02 4.236360441817050848e-01
4.190000000000000000e+02 8.897470109935452787e-02
4.200000000000000000e+02 9.237206347230977332e-01
4.210000000000000000e+02 9.741774117402991484e-01
4.220000000000000000e+02 7.615933584318608229e-01
4.230000000000000000e+02 6.823593248288664093e-01
4.240000000000000000e+02 3.623517855216727979e-01
4.250000000000000000e+02 6.591546336859613886e-01
4.260000000000000000e+02 6.849730920970790171e-01
4.270000000000000000e+02 6.573476322339775191e-01
4.280000000000000000e+02 6.456266968062979172e-01
4.290000000000000000e+02 4.319093208877796131e-01
4.300000000000000000e+02 6.751053623729503794e-01
4.310000000000000000e+02 5.194521360431419987e-01
4.320000000000000000e+02 3.680987548226503647e-01
4.330000000000000000e+02 3.079076264260560691e-01
4.340000000000000000e+02 2.033566018249669816e-01
4.350000000000000000e+02 6.743387722464221357e-01
4.360000000000000000e+02 6.435384113254526417e-01
4.370000000000000000e+02 5.200060248859394996e-01
4.380000000000000000e+02 6.302265843186080074e-01
4.390000000000000000e+02 6.624236521468567229e-01
4.400000000000000000e+02 5.609459800871291479e-02
4.410000000000000000e+02 8.982038394523889080e-02
4.420000000000000000e+02 2.471929703381094967e-01
4.430000000000000000e+02 4.637106238075479614e-01
4.440000000000000000e+02 2.960933553204767588e-01
4.450000000000000000e+02 4.480371717486009153e-01
4.460000000000000000e+02 3.450654126918281106e-01
4.470000000000000000e+02 8.766541281701495381e-02
4.480000000000000000e+02 6.130151484795742789e-02
4.490000000000000000e+02 6.205227199987693038e-02
4.500000000000000000e+02 3.375821512134389302e-01
4.510000000000000000e+02 2.712535218834300488e-01
4.520000000000000000e+02 8.046973654583203239e-02
4.530000000000000000e+02 1.265975671022612770e-01
4.540000000000000000e+02 5.643562197809469383e-02
4.550000000000000000e+02 3.932892781580530489e-02
4.560000000000000000e+02 1.330139265318436639e-02
4.570000000000000000e+02 2.275147303464009063e-01
4.580000000000000000e+02 3.915998545944809894e-01
4.590000000000000000e+02 2.794809184816405834e-01
4.600000000000000000e+02 1.499543219249115933e-01
4.610000000000000000e+02 1.899407809583071316e-01
4.620000000000000000e+02 2.947540109935720132e-01
4.630000000000000000e+02 3.291694250155565160e-01
4.640000000000000000e+02 2.852188911014323369e-01
4.650000000000000000e+02 2.413700871188558528e-01
4.660000000000000000e+02 2.470112109520843646e-01
4.670000000000000000e+02 6.784484201514499879e-02
4.680000000000000000e+02 1.405836938394477154e-01
4.690000000000000000e+02 3.443570240564085005e-01
4.700000000000000000e+02 3.395493810412774649e-01
4.710000000000000000e+02 3.649461532877019687e-01
4.720000000000000000e+02 1.593190014516772113e-01
4.730000000000000000e+02 1.728402146857519472e-01
4.740000000000000000e+02 4.775088228583281302e-01
4.750000000000000000e+02 3.992016051430943846e-01
4.760000000000000000e+02 5.014198429786357325e-01
4.770000000000000000e+02 4.168666235220898075e-01
4.780000000000000000e+02 4.432601901700563563e-01
4.790000000000000000e+02 5.180153312590753956e-01
4.800000000000000000e+02 6.589250147272397440e-01
4.810000000000000000e+02 1.040849541683942503e+00
4.820000000000000000e+02 1.098928787181085998e+00
4.830000000000000000e+02 8.945918485791266583e-01
4.840000000000000000e+02 7.138693389338320872e-01
4.850000000000000000e+02 6.523457338726410537e-01
4.860000000000000000e+02 6.392772756689478753e-01
4.870000000000000000e+02 6.732492949595518805e-01
4.880000000000000000e+02 7.137270943787595856e-01
4.890000000000000000e+02 5.299015990458464387e-01
4.900000000000000000e+02 3.781849595519606866e-01
4.910000000000000000e+02 6.035108481642814660e-01
4.920000000000000000e+02 9.186432244347635390e-01
4.930000000000000000e+02 8.798165631611675197e-01
4.940000000000000000e+02 8.012504683675581996e-01
4.950000000000000000e+02 9.289419838207849667e-01
4.960000000000000000e+02 1.222972971997515979e+00
4.970000000000000000e+02 1.379212699025097244e+00
4.980000000000000000e+02 1.258841551638323564e+00
4.990000000000000000e+02 1.275501861646958446e+00
5.000000000000000000e+02 1.343453210952084698e+00
5.010000000000000000e+02 1.303635052882620160e+00
5.020000000000000000e+02 1.256266907280645384e+00
5.030000000000000000e+02 1.525627094586179400e+00
5.040000000000000000e+02 1.694094425549563354e+00
5.050000000000000000e+02 1.794266416925948349e+00
5.060000000000000000e+02 1.946338070524784580e+00
5.070000000000000000e+02 2.117912070924927725e+00
5.080000000000000000e+02 1.983052130056004669e+00
5.090000000000000000e+02 1.995383464219040448e+00
5.100000000000000000e+02 2.405993330429378574e+00
5.110000000000000000e+02 2.506159312175892495e+00
5.120000000000000000e+02 2.359332142501558316e+00
5.130000000000000000e+02 2.934441729309268609e+00
5.140000000000000000e+02 2.989831584318605184e+00
5.150000000000000000e+02 3.330455189587214981e+00
5.160000000000000000e+02 3.393378957477700020e+00
5.170000000000000000e+02 3.236893911636590015e+00
5.180000000000000000e+02 3.469583960796517097e+00
5.190000000000000000e+02 3.935724347853154281e+00
5.200000000000000000e+02 4.133802415888823134e+00
5.210000000000000000e+02 4.352140528728487112e+00
5.220000000000000000e+02 4.515531571250781973e+00
5.230000000000000000e+02 4.514629911014316654e+00
5.240000000000000000e+02 4.634875431978437099e+00
5.250000000000000000e+02 4.780062946069262075e+00
5.260000000000000000e+02 5.447960868906896792e+00
5.270000000000000000e+02 5.912650627955206240e+00
5.280000000000000000e+02 5.939230711263221885e+00
5.290000000000000000e+02 6.130056010786134379e+00
5.300000000000000000e+02 6.640234295313144131e+00
5.310000000000000000e+02 6.808203267994191954e+00
5.320000000000000000e+02 6.322583517112633444e+00
5.330000000000000000e+02 6.402338544587323987e+00
5.340000000000000000e+02 7.429962816428145267e+00
5.350000000000000000e+02 7.717346526446797306e+00
5.360000000000000000e+02 7.210118408836321713e+00
5.370000000000000000e+02 6.918586642812686982e+00
5.380000000000000000e+02 6.553477050404467263e+00
5.390000000000000000e+02 6.232403879900445531e+00
5.400000000000000000e+02 6.430717203899601664e+00
5.410000000000000000e+02 6.108665131922833780e+00
5.420000000000000000e+02 6.105310999999997712e+00
5.430000000000000000e+02 5.750066841111785898e+00
5.440000000000000000e+02 5.536838016179221000e+00
5.450000000000000000e+02 5.701249026757935212e+00
5.460000000000000000e+02 5.071628807716245468e+00
5.470000000000000000e+02 4.805262074673305683e+00
5.480000000000000000e+02 4.898911105372332209e+00
5.490000000000000000e+02 4.446230123833216474e+00
5.500000000000000000e+02 3.788376485690587714e+00
5.510000000000000000e+02 3.986727097697566169e+00
5.520000000000000000e+02 3.584659984443058889e+00
5.530000000000000000e+02 3.521997366030692245e+00
5.540000000000000000e+02 3.289962974486613234e+00
5.550000000000000000e+02 2.993573428749221499e+00
5.560000000000000000e+02 2.651038081708825711e+00
5.570000000000000000e+02 1.823236682431025324e+00
5.580000000000000000e+02 1.992860057456960599e+00
5.590000000000000000e+02 1.843831344670256556e+00
5.600000000000000000e+02 1.692795227753577381e+00
5.610000000000000000e+02 1.625677993154946988e+00
5.620000000000000000e+02 1.396465680630441852e+00
5.630000000000000000e+02 1.696276647583489394e+00
5.640000000000000000e+02 1.679935155569382665e+00
5.650000000000000000e+02 1.449187018046044662e+00
5.660000000000000000e+02 9.835031854387044081e-01
5.670000000000000000e+02 6.027897330429351497e-01
5.680000000000000000e+02 7.999204364239768106e-01
5.690000000000000000e+02 3.046430031113886439e-01
5.700000000000000000e+02 3.264570369217973389e-01
5.710000000000000000e+02 1.307268070939625604e-01
5.720000000000000000e+02 1.847175559012668167e-01
5.730000000000000000e+02 1.467138558643394930e-01
5.740000000000000000e+02 1.775396291225887213e-01
5.750000000000000000e+02 2.524141934053055758e-01
5.760000000000000000e+02 9.589440109604727147e-02
5.770000000000000000e+02 1.703776065131716866e-01
5.780000000000000000e+02 1.323866398394520361e-01
5.790000000000000000e+02 1.565020767316460393e-01
5.800000000000000000e+02 1.329708390375436700e-01
5.810000000000000000e+02 2.721589427504634284e-01
5.820000000000000000e+02 4.012380966403971683e-01
5.830000000000000000e+02 3.121634542626041120e-01
5.840000000000000000e+02 2.355001522505659750e-01
5.850000000000000000e+02 4.851463276648669831e-01
5.860000000000000000e+02 4.279013468160151046e-01
5.870000000000000000e+02 4.964666851275642556e-01
5.880000000000000000e+02 1.985242449699455847e-01
5.890000000000000000e+02 1.082601955320428300e-01
5.900000000000000000e+02 1.517407485231033783e-02
5.910000000000000000e+02 7.699711332669764707e-02
5.920000000000000000e+02 4.311642382952846075e-02
5.930000000000000000e+02 1.200679450321510688e-01
5.940000000000000000e+02 5.612850129578855762e-02
5.950000000000000000e+02 2.392103790958112763e-01
5.960000000000000000e+02 2.831768394523918597e-01
5.970000000000000000e+02 3.450883205973808571e-02
5.980000000000000000e+02 4.720557666942961639e-01
5.990000000000000000e+02 2.123799178593406833e-01
6.000000000000000000e+02 1.309104751904238972e-01
6.010000000000000000e+02 5.089984574865079603e-01
6.020000000000000000e+02 6.614691171955959792e-01
6.030000000000000000e+02 8.128389645301703492e-01
6.040000000000000000e+02 1.261755172163451011e+00
6.050000000000000000e+02 8.736617230865209027e-01
6.060000000000000000e+02 6.834315444928182881e-01
6.070000000000000000e+02 1.309930206181285639e+00
6.080000000000000000e+02 1.540587149139184042e+00
6.090000000000000000e+02 1.375349681393902124e+00
6.100000000000000000e+02 1.787596646546365742e+00
6.110000000000000000e+02 2.070159448454677698e+00
6.120000000000000000e+02 2.233723300767478381e+00
6.130000000000000000e+02 2.507590366728899678e+00
6.140000000000000000e+02 2.576568002489113773e+00
6.150000000000000000e+02 2.888754605476052006e+00
6.160000000000000000e+02 3.005313668118648085e+00
6.170000000000000000e+02 3.102229575606732404e+00
6.180000000000000000e+02 3.545379089589416832e+00
6.190000000000000000e+02 4.206452645301797411e+00
6.200000000000000000e+02 4.280435027380208979e+00
6.210000000000000000e+02 4.401995067192046918e+00
6.220000000000000000e+02 4.827698472308640021e+00
6.230000000000000000e+02 5.104307756689482112e+00
6.240000000000000000e+02 5.473566924512644150e+00
6.250000000000000000e+02 6.317187835096455650e+00
6.260000000000000000e+02 7.038320063679734950e+00
6.270000000000000000e+02 7.353300696391544378e+00
6.280000000000000000e+02 7.925679155569402390e+00
6.290000000000000000e+02 8.642306742791967977e+00
6.300000000000000000e+02 9.239352070095421254e+00
6.310000000000000000e+02 9.736815869321732819e+00
6.320000000000000000e+02 1.019871159303051300e+01
6.330000000000000000e+02 1.096753527691353725e+01
6.340000000000000000e+02 1.150311820784071415e+01
6.350000000000000000e+02 1.248121367766027312e+01
6.360000000000000000e+02 1.356754898983612634e+01
6.370000000000000000e+02 1.401561765401367055e+01
6.380000000000000000e+02 1.519596381248706685e+01
6.390000000000000000e+02 1.706574101431237978e+01
6.400000000000000000e+02 1.820384804604853457e+01
6.410000000000000000e+02 1.897670065339140777e+01
6.420000000000000000e+02 2.012897037336654549e+01
6.430000000000000000e+02 2.166147047293095440e+01
6.440000000000000000e+02 2.318802501659065385e+01
6.450000000000000000e+02 2.507186085459452229e+01
6.460000000000000000e+02 2.588334126322341078e+01
6.470000000000000000e+02 2.728286097055167758e+01
6.480000000000000000e+02 2.940589924911847319e+01
6.490000000000000000e+02 3.085114766023648869e+01
6.500000000000000000e+02 3.259024344048115296e+01
6.510000000000000000e+02 3.402509915992535383e+01
6.520000000000000000e+02 3.502047419207634249e+01
6.530000000000000000e+02 3.666635351306516100e+01
6.540000000000000000e+02 3.873523537025511843e+01
6.550000000000000000e+02 4.035703596764157908e+01
6.560000000000000000e+02 4.247574924305271082e+01
6.570000000000000000e+02 4.311572313005601131e+01
6.580000000000000000e+02 4.454728195602572072e+01
6.590000000000000000e+02 4.564711747977598577e+01
6.600000000000000000e+02 4.628893171748600821e+01
6.610000000000000000e+02 4.749294861024683456e+01
6.620000000000000000e+02 4.839603918689068962e+01
6.630000000000000000e+02 4.794471596141879388e+01
6.640000000000000000e+02 4.810829477909147300e+01
6.650000000000000000e+02 4.822614725575606087e+01
6.660000000000000000e+02 4.741761999999999944e+01
6.670000000000000000e+02 4.638068972619789321e+01
6.680000000000000000e+02 4.666940927400953854e+01
6.690000000000000000e+02 4.521658668948351334e+01
6.700000000000000000e+02 4.422842858328148452e+01
6.710000000000000000e+02 4.280841878241028553e+01
6.720000000000000000e+02 4.126048134826799441e+01
6.730000000000000000e+02 4.053819025508088458e+01
6.740000000000000000e+02 3.946232503422527316e+01
6.750000000000000000e+02 3.677624996058911933e+01
6.760000000000000000e+02 3.548339887183742292e+01
6.770000000000000000e+02 3.432216828043975454e+01
6.780000000000000000e+02 3.259812696328565096e+01
6.790000000000000000e+02 3.125911114060556528e+01
6.800000000000000000e+02 3.071681077369841617e+01
6.810000000000000000e+02 2.789424053308448137e+01
6.820000000000000000e+02 2.661976539610120440e+01
6.830000000000000000e+02 2.509549946484134963e+01
6.840000000000000000e+02 2.348187638249327946e+01
6.850000000000000000e+02 2.253611104542626009e+01
6.860000000000000000e+02 2.128368148516905478e+01
6.870000000000000000e+02 2.021244400124455964e+01
6.880000000000000000e+02 1.875440180460487127e+01
6.890000000000000000e+02 1.771515782410286732e+01
6.900000000000000000e+02 1.692243484961624489e+01
6.910000000000000000e+02 1.598364006637628698e+01
6.920000000000000000e+02 1.509938336029871131e+01
6.930000000000000000e+02 1.451668526031945916e+01
6.940000000000000000e+02 1.332034023646549059e+01
6.950000000000000000e+02 1.230640079651527152e+01
6.960000000000000000e+02 1.150362736154328047e+01
6.970000000000000000e+02 1.086318861232110855e+01
6.980000000000000000e+02 1.031677231943584161e+01
6.990000000000000000e+02 8.977768662380773534e+00
7.000000000000000000e+02 8.612128407384361140e+00
7.010000000000000000e+02 8.177734970752959853e+00
7.020000000000000000e+02 7.696826216092907735e+00
7.030000000000000000e+02 7.343068660443886841e+00
7.040000000000000000e+02 6.978003305745689389e+00
7.050000000000000000e+02 6.388097339693100452e+00
7.060000000000000000e+02 5.430306626011171645e+00
7.070000000000000000e+02 5.094874914333122895e+00
7.080000000000000000e+02 4.839530707175458524e+00
7.090000000000000000e+02 4.399182484754220468e+00
7.100000000000000000e+02 3.978355789670208864e+00
7.110000000000000000e+02 3.796981741754834605e+00
7.120000000000000000e+02 3.445965706285008867e+00
7.130000000000000000e+02 3.354057852935079076e+00
7.140000000000000000e+02 3.220855145820372911e+00
7.150000000000000000e+02 2.617938490976989385e+00
7.160000000000000000e+02 1.956049858743001080e+00
7.170000000000000000e+02 1.971063164073844964e+00
7.180000000000000000e+02 2.100853433312590113e+00
7.190000000000000000e+02 1.778519070939636570e+00
7.200000000000000000e+02 1.713415919103923768e+00
7.210000000000000000e+02 1.609136591371077563e+00
7.220000000000000000e+02 1.381502607342869782e+00
7.230000000000000000e+02 1.308885412777432089e+00
7.240000000000000000e+02 1.370408410703170210e+00
7.250000000000000000e+02 6.511536124014837279e-01
7.260000000000000000e+02 8.199470740510179656e-01
7.270000000000000000e+02 8.088879908732755641e-01
7.280000000000000000e+02 5.376038523434161220e-01
7.290000000000000000e+02 4.704437604231452852e-01
7.300000000000000000e+02 5.498274496992368032e-01
7.310000000000000000e+02 2.274961148900903618e-01
7.320000000000000000e+02 4.023119477286897505e-02
7.330000000000000000e+02 1.268661682744246511e-01
7.340000000000000000e+02 1.666399763583536475e-01
7.350000000000000000e+02 1.883490707322186819e-01
7.360000000000000000e+02 3.047237469404656118e-01
7.370000000000000000e+02 1.581865040815146339e-01
7.380000000000000000e+02 5.807821867124571269e-02
7.390000000000000000e+02 3.551733906699997001e-02
7.400000000000000000e+02 9.576332852084543101e-02
7.410000000000000000e+02 4.738456180979559035e-02
7.420000000000000000e+02 1.952319502177992661e-01
7.430000000000000000e+02 2.419265463596755872e-01
7.440000000000000000e+02 2.377917855216786502e-01
7.450000000000000000e+02 5.913494989774350369e-02
7.460000000000000000e+02 1.432549943339547494e-01
7.470000000000000000e+02 1.216019027106419459e-01
7.480000000000000000e+02 5.570613638155893013e-03
7.490000000000000000e+02 5.441064363119912234e-02
7.500000000000000000e+02 2.180971449906663751e-01
7.510000000000000000e+02 2.670140112010033762e-01
7.520000000000000000e+02 4.206959956440539661e-01
7.530000000000000000e+02 2.342415615017576780e-01
7.540000000000000000e+02 1.625954408958970587e-01
7.550000000000000000e+02 2.943920271727873961e-01
7.560000000000000000e+02 1.847059079029138573e-01
7.570000000000000000e+02 2.625233728743272543e-01
7.580000000000000000e+02 1.564511665629653436e-01
7.590000000000000000e+02 1.722058102053477535e-01
7.600000000000000000e+02 7.429471712982609055e-02
7.610000000000000000e+02 4.771023895457625341e-02
7.620000000000000000e+02 1.104677322132338740e-01
7.630000000000000000e+02 2.587864122770698605e-02
7.640000000000000000e+02 6.253798766168960910e-02
7.650000000000000000e+02 4.702560660983177987e-02
7.660000000000000000e+02 7.436033071126246785e-02
7.670000000000000000e+02 1.217600414528157426e-01
7.680000000000000000e+02 3.415947699647371438e-01
7.690000000000000000e+02 3.089360962455945381e-01
7.700000000000000000e+02 4.411103602986938266e-01
7.710000000000000000e+02 4.439867718315702039e-01
7.720000000000000000e+02 4.062778176726812296e-01
7.730000000000000000e+02 2.944977915370247112e-01
7.740000000000000000e+02 2.937371742377092865e-01
7.750000000000000000e+02 2.120384698195353079e-01
7.760000000000000000e+02 4.898109673470234238e-02
7.770000000000000000e+02 4.331805604646304930e-01
7.780000000000000000e+02 4.492848052271308235e-01
7.790000000000000000e+02 5.349579228375860307e-01
7.800000000000000000e+02 6.929236370800490041e-01
7.810000000000000000e+02 5.822551520431431538e-01
7.820000000000000000e+02 3.814167651939414094e-01
7.830000000000000000e+02 5.812696980506016908e-01
7.840000000000000000e+02 5.020875401369010449e-01
7.850000000000000000e+02 7.554679180667891458e-01
7.860000000000000000e+02 6.192132372951737462e-01
7.870000000000000000e+02 6.381934219041611733e-01
7.880000000000000000e+02 7.796480634723089720e-01
7.890000000000000000e+02 6.404068124870408996e-01
7.900000000000000000e+02 4.677078353038818248e-01
7.910000000000000000e+02 7.060367008919276044e-01
7.920000000000000000e+02 5.184224212818896449e-01
7.930000000000000000e+02 8.102283255910329718e-01
7.940000000000000000e+02 8.483787892553423804e-01
7.950000000000000000e+02 7.182969249118429378e-01
7.960000000000000000e+02 9.147612223143924970e-01
7.970000000000000000e+02 9.203830398257610845e-01
7.980000000000000000e+02 8.405907044181698540e-01
7.990000000000000000e+02 8.817204805060117057e-01
8.000000000000000000e+02 9.386181435386835581e-01
8.010000000000000000e+02 1.049481539514629524e+00
8.020000000000000000e+02 1.005379061385324402e+00
8.030000000000000000e+02 7.486482887367830186e-01
8.040000000000000000e+02 7.048101534951245473e-01
8.050000000000000000e+02 9.574024218166665712e-01
8.060000000000000000e+02 9.303395376477939793e-01
8.070000000000000000e+02 8.259241588881981455e-01
8.080000000000000000e+02 9.169291379381848683e-01
8.090000000000000000e+02 1.044981380211575051e+00
8.100000000000000000e+02 9.128749464841350303e-01
8.110000000000000000e+02 6.929279359054127951e-01
8.120000000000000000e+02 7.232781310931356566e-01
8.130000000000000000e+02 1.051826065546569655e+00
8.140000000000000000e+02 7.484115032150793212e-01
8.150000000000000000e+02 7.532979775980250814e-01
8.160000000000000000e+02 1.009846915577681470e+00
8.170000000000000000e+02 7.389684687824276121e-01
8.180000000000000000e+02 4.119110217797050111e-01
8.190000000000000000e+02 1.096196673164656410e+00
8.200000000000000000e+02 7.288599925326831874e-01
8.210000000000000000e+02 7.348993256585696354e-01
8.220000000000000000e+02 7.254928809622659402e-01
8.230000000000000000e+02 5.348918865380634102e-01
8.240000000000000000e+02 6.179910037336600048e-01
8.250000000000000000e+02 8.896916710908331360e-01
8.260000000000000000e+02 8.054739539514613744e-01
8.270000000000000000e+02 5.535330767475619140e-01
8.280000000000000000e+02 6.260997552882668904e-01
8.290000000000000000e+02 7.638223584318621917e-01
8.300000000000000000e+02 8.409841433312615910e-01
8.310000000000000000e+02 9.209317179593554670e-01
8.320000000000000000e+02 9.477429066583713535e-01
8.330000000000000000e+02 1.026816550715605514e+00
8.340000000000000000e+02 6.245636421904270374e-01
8.350000000000000000e+02 7.041376202032660903e-01
8.360000000000000000e+02 8.623898678697371478e-01
8.370000000000000000e+02 7.738159695084062539e-01
8.380000000000000000e+02 6.547373615432464655e-01
8.390000000000000000e+02 8.309118908939989723e-01
8.400000000000000000e+02 1.062643171126322228e+00
8.410000000000000000e+02 9.908373922422736291e-01
8.420000000000000000e+02 1.005247810205351477e+00
8.430000000000000000e+02 1.112038553204731439e+00
8.440000000000000000e+02 1.400893315079867252e+00
8.450000000000000000e+02 1.464004939224222479e+00
8.460000000000000000e+02 8.224242991080535914e-01
8.470000000000000000e+02 6.203395849408994689e-01
8.480000000000000000e+02 1.230093499792627831e+00
8.490000000000000000e+02 1.398453453225466880e+00
8.500000000000000000e+02 1.077304818709800660e+00
8.510000000000000000e+02 9.514168531729643163e-01
8.520000000000000000e+02 1.070151600497823985e+00
8.530000000000000000e+02 9.893111435386843233e-01
8.540000000000000000e+02 9.738131961841546280e-01
8.550000000000000000e+02 8.889595214685753755e-01
8.560000000000000000e+02 1.007297221530801368e+00
8.570000000000000000e+02 1.017801059726253676e+00
8.580000000000000000e+02 1.056623325243726930e+00
8.590000000000000000e+02 1.103023791122173858e+00
8.600000000000000000e+02 1.053671138767891202e+00
8.610000000000000000e+02 1.110284026135661017e+00
8.620000000000000000e+02 1.278865271313004648e+00
8.630000000000000000e+02 1.059427535780954166e+00
8.640000000000000000e+02 1.113871051234185172e+00
8.650000000000000000e+02 9.037486720597354140e-01
8.660000000000000000e+02 7.878653764779149915e-01
8.670000000000000000e+02 1.036821528313629948e+00
8.680000000000000000e+02 1.023245219041692078e+00
8.690000000000000000e+02 7.490448724331072450e-01
8.700000000000000000e+02 1.105654548848789220e+00
8.710000000000000000e+02 9.110833503422532953e-01
8.720000000000000000e+02 7.539481329599664328e-01
8.730000000000000000e+02 7.866567900850423012e-01
8.740000000000000000e+02 9.119429145582732543e-01
8.750000000000000000e+02 1.042488275668937092e+00
8.760000000000000000e+02 7.917222885293506707e-01
8.770000000000000000e+02 7.342957378681036484e-01
8.780000000000000000e+02 6.268873756482098436e-01
8.790000000000000000e+02 9.019466477909136026e-01
8.800000000000000000e+02 7.940553038158441046e-01
8.810000000000000000e+02 1.061051226509023282e+00
8.820000000000000000e+02 1.010620571250775201e+00
8.830000000000000000e+02 6.581493620904192987e-01
8.840000000000000000e+02 8.559827311761052382e-01
8.850000000000000000e+02 1.040317939639078038e+00
8.860000000000000000e+02 9.596147957279171914e-01
8.870000000000000000e+02 5.928755569383956647e-01
8.880000000000000000e+02 6.276889539514622918e-01
8.890000000000000000e+02 6.784322240199128773e-01
8.900000000000000000e+02 8.547418095830755513e-01
8.910000000000000000e+02 7.056639236672901383e-01
8.920000000000000000e+02 8.490555096453012984e-01
8.930000000000000000e+02 8.238896801493481581e-01
8.940000000000000000e+02 7.066887425845285176e-01
8.950000000000000000e+02 5.918501719560266272e-01
8.960000000000000000e+02 7.493855542418502713e-01
8.970000000000000000e+02 8.481786235220967196e-01
8.980000000000000000e+02 5.130607069072834481e-01
8.990000000000000000e+02 4.969600701099354811e-01
9.000000000000000000e+02 4.819714591455862007e-01
9.010000000000000000e+02 3.382873457788845850e-01
9.020000000000000000e+02 2.797617766023647312e-01
9.030000000000000000e+02 2.413022953131496173e-01
9.040000000000000000e+02 2.334124878655893798e-01
9.050000000000000000e+02 2.259238386226901374e-01
9.060000000000000000e+02 2.206670489423382953e-01
9.070000000000000000e+02 5.141804430616061516e-01
9.080000000000000000e+02 9.772802924477710929e-02
9.090000000000000000e+02 9.066008643322268079e-02
9.100000000000000000e+02 6.201937036507080420e-02
9.110000000000000000e+02 1.680605102675663265e-01
9.120000000000000000e+02 2.295786316881002764e-01
9.130000000000000000e+02 5.916077593383127498e-02
9.140000000000000000e+02 2.689427998340601089e-01
9.150000000000000000e+02 2.063737162414450710e-01
9.160000000000000000e+02 6.461370200933554131e-02
9.170000000000000000e+02 2.812703152872839812e-02
9.180000000000000000e+02 6.515901163182102884e-02
9.190000000000000000e+02 1.635096863721221261e-01
9.200000000000000000e+02 6.899653453640111622e-02
9.210000000000000000e+02 3.857293034287154199e-02
9.220000000000000000e+02 1.291581134619369520e-01
9.230000000000000000e+02 1.155053822260961871e-01
9.240000000000000000e+02 2.453946635266374965e-01
9.250000000000000000e+02 2.033265457374095475e-01
9.260000000000000000e+02 1.056977091889631237e-01
9.270000000000000000e+02 7.870013970898055711e-02
9.280000000000000000e+02 2.773275515452993667e-01
9.290000000000000000e+02 5.567589021153205309e-01
9.300000000000000000e+02 1.211361045426317951e-01
9.310000000000000000e+02 7.183561142563983648e-02
9.320000000000000000e+02 1.502883714226442846e-01
9.330000000000000000e+02 8.893319586973584545e-02
9.340000000000000000e+02 3.106171305662736026e-02
9.350000000000000000e+02 4.554877681833236630e-02
9.360000000000000000e+02 1.666962386185501521e-01
9.370000000000000000e+02 2.807218267994169292e-01
9.380000000000000000e+02 1.309749126918277051e-01
9.390000000000000000e+02 3.921499782202969020e-01
9.400000000000000000e+02 1.224140188757362191e-01
9.410000000000000000e+02 1.695810764040737995e-02
9.420000000000000000e+02 6.379213250798378143e-02
9.430000000000000000e+02 3.199733478532237191e-02
9.440000000000000000e+02 1.801324100808948392e-01
9.450000000000000000e+02 2.443040207425815069e-01
9.460000000000000000e+02 3.163233685957280161e-01
9.470000000000000000e+02 2.608837921593030185e-01
9.480000000000000000e+02 3.684992607342873483e-01
9.490000000000000000e+02 1.586453028417354194e-01
9.500000000000000000e+02 2.266734815453278623e-02
9.510000000000000000e+02 1.103494948651640578e-02
9.520000000000000000e+02 1.302845667790946405e-01
9.530000000000000000e+02 1.300096981953891562e-01
9.540000000000000000e+02 1.356165642959913376e-01
9.550000000000000000e+02 2.920089375777721319e-01
9.560000000000000000e+02 2.967062366728829836e-01
9.570000000000000000e+02 1.244548657000595915e-01
9.580000000000000000e+02 2.780544558274637978e-01
9.590000000000000000e+02 2.212578587430091837e-01
9.600000000000000000e+02 2.214199829910908635e-01
9.610000000000000000e+02 2.573428898797035513e-01
9.620000000000000000e+02 6.150166944492896359e-02
9.630000000000000000e+02 2.266085347438261954e-01
9.640000000000000000e+02 3.153860103691416561e-01
9.650000000000000000e+02 2.811994891101424199e-01
9.660000000000000000e+02 2.250819570628493638e-01
9.670000000000000000e+02 1.584178519286579268e-01
9.680000000000000000e+02 2.580216546359734853e-01
9.690000000000000000e+02 4.281066013275259818e-01
9.700000000000000000e+02 3.745559861024598813e-01
9.710000000000000000e+02 1.475943173615409387e-01
9.720000000000000000e+02 9.128819145405439595e-02
9.730000000000000000e+02 2.828936948973204482e-02
9.740000000000000000e+02 1.504320462559658733e-01
9.750000000000000000e+02 7.918721786683305397e-02
9.760000000000000000e+02 2.107001409215861210e-01
9.770000000000000000e+02 4.234226932171764601e-01
9.780000000000000000e+02 1.972774291640729816e-01
9.790000000000000000e+02 5.772092274507284460e-02
9.800000000000000000e+02 2.865266894835118497e-02
9.810000000000000000e+02 1.945531319311485374e-01
9.820000000000000000e+02 2.349945728215852014e-01
9.830000000000000000e+02 4.032827502592817859e-01
9.840000000000000000e+02 1.930371395426270509e-01
9.850000000000000000e+02 9.729182053142300390e-02
9.860000000000000000e+02 2.997080819332096357e-01
9.870000000000000000e+02 3.494062161377336495e-01
9.880000000000000000e+02 4.207097804293718352e-02
9.890000000000000000e+02 2.872772196639697961e-01
9.900000000000000000e+02 2.322015814146460855e-01
9.910000000000000000e+02 5.056076628313976862e-02
9.920000000000000000e+02 4.889693366770329896e-02
9.930000000000000000e+02 1.003225268469193077e-01
9.940000000000000000e+02 1.252631192451249820e-01
9.950000000000000000e+02 3.478378960796508768e-01
9.960000000000000000e+02 6.682226600290406271e-01
9.970000000000000000e+02 3.201358237245943705e-01
9.980000000000000000e+02 4.870871138767863817e-01
9.990000000000000000e+02 6.302694409873460524e-01
1.000000000000000000e+03 3.860350817936568091e-01
1.001000000000000000e+03 2.339913941908713380e-01
1.002000000000000000e+03 1.892000663900445245e-01
1.003000000000000000e+03 2.656750331950270549e-01
1.004000000000000000e+03 3.744358049792551602e-01
1.005000000000000000e+03 1.594234087137024747e-01
1.006000000000000000e+03 3.509182394605808025e-02
1.007000000000000000e+03 4.552096141078615377e-01
1.008000000000000000e+03 3.943588900414935483e-01
1.009000000000000000e+03 5.016285933609938574e-01
1.010000000000000000e+03 4.478953568464700830e-01
1.011000000000000000e+03 3.220168547717848218e-01
1.012000000000000000e+03 4.314124190871387876e-01
1.013000000000000000e+03 4.874224472049686341e-01
1.014000000000000000e+03 1.095222178423256310e-01
1.015000000000000000e+03 2.274343962655628604e-01
1.016000000000000000e+03 2.851710082987536365e-01
1.017000000000000000e+03 3.637048944099353087e-01
1.018000000000000000e+03 3.067130041493776882e-01
1.019000000000000000e+03 3.464511037344349398e-01
1.020000000000000000e+03 4.371820954356850919e-01
1.021000000000000000e+03 3.781281635610876934e-01
1.022000000000000000e+03 3.157085207468977028e-01
1.023000000000000000e+03 6.291015041493752680e-01
1.024000000000000000e+03 6.739278983402454681e-01
1.025000000000000000e+03 4.741435217391304913e-01
1.026000000000000000e+03 6.512726016597542023e-01
1.027000000000000000e+03 3.592375518672635826e-01
1.028000000000000000e+03 2.541117800829816864e-01
1.029000000000000000e+03 3.232969709543556114e-01
1.030000000000000000e+03 2.573424813278041845e-01
1.031000000000000000e+03 2.240467987551863771e-01
1.032000000000000000e+03 3.189258983402498693e-01
1.033000000000000000e+03 5.139549937759422260e-01
1.034000000000000000e+03 4.364464356846554649e-01
1.035000000000000000e+03 4.496857136929452992e-01
1.036000000000000000e+03 4.931479419087171356e-01
1.037000000000000000e+03 6.080416190476267690e-01
1.038000000000000000e+03 6.366108941908752428e-01
1.039000000000000000e+03 6.141100643153544203e-01
1.040000000000000000e+03 6.000318008298565209e-01
1.041000000000000000e+03 3.973044543568599596e-01
1.042000000000000000e+03 4.258507080745301820e-01
1.043000000000000000e+03 8.614213402489684368e-01
1.044000000000000000e+03 2.919852074689096577e-01
1.045000000000000000e+03 4.516225809128407986e-01
1.046000000000000000e+03 5.202235714285659007e-01
1.047000000000000000e+03 3.515170414937587862e-01
1.048000000000000000e+03 3.923203962655419930e-01
1.049000000000000000e+03 5.828461867219912884e-01
1.050000000000000000e+03 5.854631286306969384e-01
1.051000000000000000e+03 5.449324564315120023e-01
1.052000000000000000e+03 7.236236763485520695e-01
1.053000000000000000e+03 3.982875311203264990e-01
1.054000000000000000e+03 4.228897556935812263e-01
1.055000000000000000e+03 3.328328132780186688e-01
1.056000000000000000e+03 3.475517904564323635e-01
1.057000000000000000e+03 5.145611078838291386e-01
1.058000000000000000e+03 4.761115435684743491e-01
1.059000000000000000e+03 2.480397053941937879e-01
1.060000000000000000e+03 2.759054356846531997e-01
1.061000000000000000e+03 5.559889709543801573e-01
1.062000000000000000e+03 4.466120890269441590e-01
1.063000000000000000e+03 5.945923863278139432e-02
1.064000000000000000e+03 1.347734087137143488e-01
1.065000000000000000e+03 8.605558091288145750e-02
1.066000000000000000e+03 3.468923167701739585e-01
1.067000000000000000e+03 5.999793526970724766e-01
1.068000000000000000e+03 4.509338008298764966e-01
1.069000000000000000e+03 6.007217551867178873e-01
1.070000000000000000e+03 5.129352863070507640e-01
1.071000000000000000e+03 1.468625465838249156e-01
1.072000000000000000e+03 1.770316244813211204e-01
1.073000000000000000e+03 2.330626016597505124e-01
1.074000000000000000e+03 3.238026659751088721e-01
1.075000000000000000e+03 3.393558962655635614e-01
1.076000000000000000e+03 2.919615518672205590e-01
1.077000000000000000e+03 3.560966058091342146e-01
1.078000000000000000e+03 4.280196846472861805e-01
1.079000000000000000e+03 3.551826887966672008e-01
1.080000000000000000e+03 4.765538962655589961e-01
1.081000000000000000e+03 7.745849377591773610e-02
1.082000000000000000e+03 1.652642759336105660e-01
1.083000000000000000e+03 2.052729565217392138e-01
1.084000000000000000e+03 2.711339377593400823e-01
1.085000000000000000e+03 2.010463112033035737e-01
1.086000000000000000e+03 1.721697800829815606e-01
1.087000000000000000e+03 1.713308215767638809e-01
1.088000000000000000e+03 2.289021327800996319e-01
1.089000000000000000e+03 4.122364854772286868e-01
1.090000000000000000e+03 7.203494635311642746e-02
1.091000000000000000e+03 1.600708423236568145e-01
1.092000000000000000e+03 2.421698008298767135e-01
1.093000000000000000e+03 2.557413195020737939e-01
1.094000000000000000e+03 2.873636224066392075e-01
1.095000000000000000e+03 1.841548215767511709e-01
1.096000000000000000e+03 1.641446141078728160e-01
1.097000000000000000e+03 2.189212987551873713e-01
1.098000000000000000e+03 2.669112572614190104e-01
1.099000000000000000e+03 4.035887053941907276e-01
1.100000000000000000e+03 2.766177453416197030e-01
1.101000000000000000e+03 2.565898713692947308e-01
1.102000000000000000e+03 3.073609585062212490e-01
1.103000000000000000e+03 2.424508506224060111e-01
1.104000000000000000e+03 3.064097577639739445e-01
1.105000000000000000e+03 2.423477385892041092e-01
1.106000000000000000e+03 3.302838962655285093e-01
1.107000000000000000e+03 4.525718630705454770e-01
1.108000000000000000e+03 2.761069689440933117e-01
1.109000000000000000e+03 2.610323609958436486e-01
1.110000000000000000e+03 5.496527883817398097e-01
1.111000000000000000e+03 3.030641203319519583e-01
1.112000000000000000e+03 3.538160794201755666e-02
1.113000000000000000e+03 1.182831246535136493e-01
1.114000000000000000e+03 3.407119619295075064e-02
1.115000000000000000e+03 9.135033907676681775e-02
1.116000000000000000e+03 1.102253849194227524e-02
1.117000000000000000e+03 2.601015020746740292e-01
1.118000000000000000e+03 4.351740746887964306e-01
1.119000000000000000e+03 4.147567759336113768e-01
1.120000000000000000e+03 3.831249668049933055e-01
1.121000000000000000e+03 2.153790103734462835e-01
1.122000000000000000e+03 7.119772193360604517e-02
1.123000000000000000e+03 6.068510774273744995e-02
1.124000000000000000e+03 2.121272759336005342e-01
1.125000000000000000e+03 1.585729917012413948e-01
1.126000000000000000e+03 3.611822655602044962e-01
1.127000000000000000e+03 2.536252572614460798e-01
1.128000000000000000e+03 6.145531214522641228e-02
1.129000000000000000e+03 2.501318423236512101e-01
1.130000000000000000e+03 2.663415186721880823e-01
1.131000000000000000e+03 3.142378817427441962e-01
1.132000000000000000e+03 2.653591597510434608e-01
1.133000000000000000e+03 6.471686045548653565e-01
1.134000000000000000e+03 2.996517095435923816e-01
1.135000000000000000e+03 3.226894564315340719e-01
1.136000000000000000e+03 3.491372157676301269e-01
1.137000000000000000e+03 3.334247826086952915e-01
1.138000000000000000e+03 3.146539522821597545e-01
1.139000000000000000e+03 2.655812780082979496e-01
1.140000000000000000e+03 3.145986037344500885e-01
1.141000000000000000e+03 3.367967142857216656e-01
1.142000000000000000e+03 3.684033195018060480e-03
1.143000000000000000e+03 1.005133070539424023e-01
1.144000000000000000e+03 6.049823062239519794e-02
1.145000000000000000e+03 4.092693333333290995e-01
1.146000000000000000e+03 2.604844937759174806e-01
1.147000000000000000e+03 4.376719117012266291e-02
1.148000000000000000e+03 7.723708771161127973e-02
1.149000000000000000e+03 5.816099999999999742e-02
1.150000000000000000e+03 1.101157095435935651e-01
1.151000000000000000e+03 2.937663568464764507e-01
1.152000000000000000e+03 2.601648257261390818e-01
1.153000000000000000e+03 3.571424439834008924e-01
1.154000000000000000e+03 6.104116925519956216e-02
1.155000000000000000e+03 3.422452302904404053e-01
1.156000000000000000e+03 2.513239356846441730e-01
1.157000000000000000e+03 6.442680745342134474e-02
1.158000000000000000e+03 4.316647427385690294e-01
1.159000000000000000e+03 3.345712572614149560e-01
1.160000000000000000e+03 4.491178423237127126e-02
1.161000000000000000e+03 1.239479377593504794e-01
1.162000000000000000e+03 3.549644057971170219e-01
1.163000000000000000e+03 1.949586224066451046e-01
1.164000000000000000e+03 4.947666348547878346e-01
1.165000000000000000e+03 4.704545103734551481e-01
1.166000000000000000e+03 2.380817908902689850e-01
1.167000000000000000e+03 6.908011535270066616e-01
1.168000000000000000e+03 8.882846348547692727e-01
1.169000000000000000e+03 2.114061701245160130e-01
1.170000000000000000e+03 5.003368464729943815e-02
1.171000000000000000e+03 4.087597571161945970e-03
1.172000000000000000e+03 2.048713112032871098e-01
1.173000000000000000e+03 5.308763319502074474e-01
1.174000000000000000e+03 4.630830621117904000e-01
1.175000000000000000e+03 2.492591659751305921e-01
1.176000000000000000e+03 3.326652282157534918e-02
1.177000000000000000e+03 3.257582545643070149e-02
1.178000000000000000e+03 2.113218174274060779e-01
1.179000000000000000e+03 2.496091141078825570e-01
1.180000000000000000e+03 5.664413568464785609e-01
1.181000000000000000e+03 4.781315165974853731e-01
1.182000000000000000e+03 3.515730850622426629e-01
1.183000000000000000e+03 2.489018174273872341e-01
1.184000000000000000e+03 2.207256556016703175e-01
1.185000000000000000e+03 3.587474896265558377e-01
1.186000000000000000e+03 3.354505217391331451e-01
1.187000000000000000e+03 2.638424730290421238e-01
1.188000000000000000e+03 1.768474585062230486e-01
1.189000000000000000e+03 2.465029024896127352e-01
1.190000000000000000e+03 4.586917717842313724e-01
1.191000000000000000e+03 2.174380062111598011e-01
1.192000000000000000e+03 1.045834695020742278e-01
1.193000000000000000e+03 1.751826431535229434e-01
1.194000000000000000e+03 2.843907842323675217e-01
1.195000000000000000e+03 4.217625196687526112e-01
1.196000000000000000e+03 5.387148921161767356e-01
1.197000000000000000e+03 5.571873340248963968e-01
1.198000000000000000e+03 5.217063775933638015e-01
1.199000000000000000e+03 4.204931825726588301e-01
1.200000000000000000e+03 1.995285405394224901e-02
1.201000000000000000e+03 1.221279668049838479e-01
1.202000000000000000e+03 1.583177510373471875e-01
1.203000000000000000e+03 2.327113726707991104e-01
1.204000000000000000e+03 4.884749626556051383e-01
1.205000000000000000e+03 4.404336327800672524e-01
1.206000000000000000e+03 3.960033008298723955e-01
1.207000000000000000e+03 3.847826950207495766e-01
1.208000000000000000e+03 4.313734771784317745e-01
1.209000000000000000e+03 4.276082738588994347e-01
1.210000000000000000e+03 2.630755975103480360e-01
1.211000000000000000e+03 4.580767329192511617e-01
1.212000000000000000e+03 2.431684431557848414e-02
1.213000000000000000e+03 1.087450248962621158e-01
1.214000000000000000e+03 4.614847178423199803e-01
1.215000000000000000e+03 2.706458592132350294e-01
1.216000000000000000e+03 9.232891635684620235e-02
1.217000000000000000e+03 3.974124066389877474e-01
1.218000000000000000e+03 2.796737510373352720e-01
1.219000000000000000e+03 5.241433409958207862e-02
1.220000000000000000e+03 1.281245652173811367e-01
1.221000000000000000e+03 3.492989253112024906e-01
1.222000000000000000e+03 3.602951950207334830e-01
1.223000000000000000e+03 5.821998231744412999e-02
1.224000000000000000e+03 2.402976265560156921e-01
1.225000000000000000e+03 2.754062655601710041e-01
1.226000000000000000e+03 3.756090082987495471e-01
1.227000000000000000e+03 1.840551950207580389e-01
1.228000000000000000e+03 1.345374128630716370e-01
1.229000000000000000e+03 2.869464170124586544e-01
1.230000000000000000e+03 2.254388609958652423e-01
1.231000000000000000e+03 2.483881825726083070e-01
1.232000000000000000e+03 4.751114037267196166e-01
1.233000000000000000e+03 3.701940829875736139e-01
1.234000000000000000e+03 1.103072240663941078e-01
1.235000000000000000e+03 2.196284605809135926e-01
1.236000000000000000e+03 3.312058796680491524e-01
1.237000000000000000e+03 1.668269149377515637e-01
1.238000000000000000e+03 2.754660767634850016e-01
1.239000000000000000e+03 2.973354709543590269e-01
1.240000000000000000e+03 3.688499068323031205e-01
1.241000000000000000e+03 4.599768174273850541e-01
1.242000000000000000e+03 4.042796846473010741e-01
1.243000000000000000e+03 3.416658008298749660e-01
1.244000000000000000e+03 4.391709751552673735e-01
1.245000000000000000e+03 4.177624107883823323e-01
1.246000000000000000e+03 4.766641721991842218e-01
1.247000000000000000e+03 3.635305000000311759e-01
1.248000000000000000e+03 1.491294668049739647e-01
1.249000000000000000e+03 3.968505217391342654e-01
1.250000000000000000e+03 3.192377925311123965e-01
1.251000000000000000e+03 3.114624564315213173e-01
1.252000000000000000e+03 4.787403153526965660e-01
1.253000000000000000e+03 4.998600103734525124e-01
1.254000000000000000e+03 6.053564875518803179e-01
1.255000000000000000e+03 2.447907157676469381e-01
1.256000000000000000e+03 2.497003941908751412e-01
1.257000000000000000e+03 2.481531618257269145e-01
1.258000000000000000e+03 1.587340746887999643e-01
1.259000000000000000e+03 1.774156058091288235e-01
1.260000000000000000e+03 3.227945145228364732e-01
1.261000000000000000e+03 2.741828074534271575e-01
1.262000000000000000e+03 2.765018748547931615e-02
1.263000000000000000e+03 4.674903020746929566e-02
1.264000000000000000e+03 3.174170041493473149e-01
1.265000000000000000e+03 5.938413785714000831e-02
1.266000000000000000e+03 1.374975020746879995e-01
1.267000000000000000e+03 8.911569294606416780e-02
1.268000000000000000e+03 2.449190912863042635e-01
1.269000000000000000e+03 1.191811478012446412e-01
1.270000000000000000e+03 1.656800103734533680e-01
1.271000000000000000e+03 3.303523775933598361e-01
1.272000000000000000e+03 3.326307883817478106e-01
1.273000000000000000e+03 1.508429296066190473e-01
1.274000000000000000e+03 9.513956778009116655e-02
1.275000000000000000e+03 2.781539502074511505e-01
1.276000000000000000e+03 3.332914813278019528e-01
1.277000000000000000e+03 1.904654066390016887e-01
1.278000000000000000e+03 3.323563526970739201e-01
1.279000000000000000e+03 4.541148360995972411e-01
1.280000000000000000e+03 2.042044377593387472e-01
1.281000000000000000e+03 4.179201120332081132e-01
1.282000000000000000e+03 4.996133043478211966e-01
1.283000000000000000e+03 5.912023858921161557e-01
1.284000000000000000e+03 3.149568381742496870e-01
1.285000000000000000e+03 5.813852264315505503e-02
1.286000000000000000e+03 1.859127542981285908e-01
1.287000000000000000e+03 4.104375954356918044e-01
1.288000000000000000e+03 1.874624647302392255e-01
1.289000000000000000e+03 5.439727781949899726e-02
1.290000000000000000e+03 2.188221842650170390e-01
1.291000000000000000e+03 5.183705601659637230e-01
1.292000000000000000e+03 3.656520414937923791e-01
1.293000000000000000e+03 2.970782365145159809e-01
1.294000000000000000e+03 4.612089917184188925e-01
1.295000000000000000e+03 2.607014294605820570e-01
1.296000000000000000e+03 3.667907655601680972e-01
1.297000000000000000e+03 1.833783423236501620e-01
1.298000000000000000e+03 2.295350809128722802e-01
1.299000000000000000e+03 7.588126078424542453e-02
1.300000000000000000e+03 3.041557842323591165e-01
1.301000000000000000e+03 3.160741950207371365e-01
1.302000000000000000e+03 2.612426473029105800e-01
1.303000000000000000e+03 1.320088132780186940e-01
1.304000000000000000e+03 2.730087139003248980e-03
1.305000000000000000e+03 2.434387874065932836e-02
1.306000000000000000e+03 0.000000000000000000e+00
1.307000000000000000e+03 0.000000000000000000e+00
1.308000000000000000e+03 0.000000000000000000e+00
1.309000000000000000e+03 0.000000000000000000e+00
1.310000000000000000e+03 0.000000000000000000e+00
1.311000000000000000e+03 0.000000000000000000e+00
1.312000000000000000e+03 0.000000000000000000e+00
1.313000000000000000e+03 0.000000000000000000e+00
1.314000000000000000e+03 0.000000000000000000e+00
1.315000000000000000e+03 0.000000000000000000e+00
1.316000000000000000e+03 0.000000000000000000e+00
1.317000000000000000e+03 0.000000000000000000e+00
1.318000000000000000e+03 0.000000000000000000e+00
1.319000000000000000e+03 0.000000000000000000e+00
1.320000000000000000e+03 0.000000000000000000e+00
1.321000000000000000e+03 0.000000000000000000e+00
1.322000000000000000e+03 0.000000000000000000e+00
1.323000000000000000e+03 0.000000000000000000e+00
1.324000000000000000e+03 0.000000000000000000e+00
1.325000000000000000e+03 0.000000000000000000e+00
1.326000000000000000e+03 0.000000000000000000e+00
1.327000000000000000e+03 0.000000000000000000e+00
1.328000000000000000e+03 0.000000000000000000e+00
1.329000000000000000e+03 0.000000000000000000e+00
1.330000000000000000e+03 0.000000000000000000e+00
1.331000000000000000e+03 0.000000000000000000e+00
1.332000000000000000e+03 0.000000000000000000e+00
1.333000000000000000e+03 0.000000000000000000e+00
1.334000000000000000e+03 0.000000000000000000e+00
1.335000000000000000e+03 0.000000000000000000e+00
1.336000000000000000e+03 0.000000000000000000e+00
1.337000000000000000e+03 0.000000000000000000e+00
1.338000000000000000e+03 0.000000000000000000e+00
1.339000000000000000e+03 0.000000000000000000e+00
1.340000000000000000e+03 0.000000000000000000e+00
1.341000000000000000e+03 0.000000000000000000e+00
1.342000000000000000e+03 0.000000000000000000e+00
1.343000000000000000e+03 0.000000000000000000e+00
1.344000000000000000e+03 0.000000000000000000e+00
1.345000000000000000e+03 0.000000000000000000e+00
1.346000000000000000e+03 0.000000000000000000e+00
1.347000000000000000e+03 0.000000000000000000e+00
1.348000000000000000e+03 0.000000000000000000e+00
1.349000000000000000e+03 0.000000000000000000e+00
1.350000000000000000e+03 0.000000000000000000e+00
1.351000000000000000e+03 0.000000000000000000e+00
1.352000000000000000e+03 0.000000000000000000e+00
1.353000000000000000e+03 0.000000000000000000e+00
1.354000000000000000e+03 0.000000000000000000e+00
1.355000000000000000e+03 0.000000000000000000e+00
1.356000000000000000e+03 0.000000000000000000e+00
1.357000000000000000e+03 0.000000000000000000e+00
1.358000000000000000e+03 0.000000000000000000e+00
1.359000000000000000e+03 0.000000000000000000e+00
1.360000000000000000e+03 0.000000000000000000e+00
1.361000000000000000e+03 0.000000000000000000e+00
1.362000000000000000e+03 0.000000000000000000e+00
1.363000000000000000e+03 0.000000000000000000e+00
1.364000000000000000e+03 0.000000000000000000e+00
1.365000000000000000e+03 0.000000000000000000e+00
1.366000000000000000e+03 0.000000000000000000e+00
1.367000000000000000e+03 0.000000000000000000e+00
1.368000000000000000e+03 0.000000000000000000e+00
1.369000000000000000e+03 0.000000000000000000e+00
1.370000000000000000e+03 0.000000000000000000e+00
1.371000000000000000e+03 0.000000000000000000e+00
1.372000000000000000e+03 0.000000000000000000e+00
1.373000000000000000e+03 0.000000000000000000e+00
1.374000000000000000e+03 0.000000000000000000e+00
1.375000000000000000e+03 0.000000000000000000e+00
1.376000000000000000e+03 0.000000000000000000e+00
1.377000000000000000e+03 0.000000000000000000e+00
1.378000000000000000e+03 0.000000000000000000e+00
1.379000000000000000e+03 0.000000000000000000e+00
1.380000000000000000e+03 0.000000000000000000e+00
1.381000000000000000e+03 0.000000000000000000e+00
1.382000000000000000e+03 0.000000000000000000e+00
1.383000000000000000e+03 0.000000000000000000e+00
1.384000000000000000e+03 0.000000000000000000e+00
1.385000000000000000e+03 0.000000000000000000e+00
1.386000000000000000e+03 0.000000000000000000e+00
1.387000000000000000e+03 0.000000000000000000e+00
1.388000000000000000e+03 0.000000000000000000e+00
1.389000000000000000e+03 0.000000000000000000e+00
1.390000000000000000e+03 0.000000000000000000e+00
1.391000000000000000e+03 0.000000000000000000e+00
1.392000000000000000e+03 0.000000000000000000e+00
1.393000000000000000e+03 0.000000000000000000e+00
1.394000000000000000e+03 0.000000000000000000e+00
1.395000000000000000e+03 0.000000000000000000e+00
1.396000000000000000e+03 0.000000000000000000e+00
1.397000000000000000e+03 0.000000000000000000e+00
1.398000000000000000e+03 0.000000000000000000e+00
1.399000000000000000e+03 0.000000000000000000e+00
1.400000000000000000e+03 0.000000000000000000e+00
1.401000000000000000e+03 0.000000000000000000e+00
1.402000000000000000e+03 0.000000000000000000e+00
1.403000000000000000e+03 0.000000000000000000e+00
1.404000000000000000e+03 0.000000000000000000e+00
1.405000000000000000e+03 0.000000000000000000e+00
1.406000000000000000e+03 0.000000000000000000e+00
1.407000000000000000e+03 0.000000000000000000e+00
1.408000000000000000e+03 0.000000000000000000e+00
1.409000000000000000e+03 0.000000000000000000e+00
1.410000000000000000e+03 0.000000000000000000e+00
1.411000000000000000e+03 0.000000000000000000e+00
1.412000000000000000e+03 0.000000000000000000e+00
1.413000000000000000e+03 0.000000000000000000e+00
1.414000000000000000e+03 0.000000000000000000e+00
1.415000000000000000e+03 0.000000000000000000e+00
1.416000000000000000e+03 0.000000000000000000e+00
1.417000000000000000e+03 0.000000000000000000e+00
1.418000000000000000e+03 0.000000000000000000e+00
1.419000000000000000e+03 0.000000000000000000e+00
1.420000000000000000e+03 0.000000000000000000e+00
1.421000000000000000e+03 0.000000000000000000e+00
1.422000000000000000e+03 0.000000000000000000e+00
1.423000000000000000e+03 0.000000000000000000e+00
1.424000000000000000e+03 0.000000000000000000e+00
1.425000000000000000e+03 0.000000000000000000e+00
1.426000000000000000e+03 0.000000000000000000e+00
1.427000000000000000e+03 0.000000000000000000e+00
1.428000000000000000e+03 0.000000000000000000e+00
1.429000000000000000e+03 0.000000000000000000e+00
1.430000000000000000e+03 0.000000000000000000e+00
1.431000000000000000e+03 0.000000000000000000e+00
1.432000000000000000e+03 0.000000000000000000e+00
1.433000000000000000e+03 0.000000000000000000e+00
1.434000000000000000e+03 0.000000000000000000e+00
1.435000000000000000e+03 0.000000000000000000e+00
1.436000000000000000e+03 0.000000000000000000e+00
1.437000000000000000e+03 0.000000000000000000e+00
1.438000000000000000e+03 0.000000000000000000e+00
1.439000000000000000e+03 0.000000000000000000e+00
1.440000000000000000e+03 0.000000000000000000e+00
1.441000000000000000e+03 0.000000000000000000e+00
1.442000000000000000e+03 0.000000000000000000e+00
1.443000000000000000e+03 0.000000000000000000e+00
1.444000000000000000e+03 0.000000000000000000e+00
1.445000000000000000e+03 0.000000000000000000e+00
1.446000000000000000e+03 0.000000000000000000e+00
1.447000000000000000e+03 0.000000000000000000e+00
1.448000000000000000e+03 0.000000000000000000e+00
1.449000000000000000e+03 0.000000000000000000e+00
1.450000000000000000e+03 0.000000000000000000e+00
1.451000000000000000e+03 0.000000000000000000e+00
1.452000000000000000e+03 0.000000000000000000e+00
1.453000000000000000e+03 0.000000000000000000e+00
1.454000000000000000e+03 0.000000000000000000e+00
1.455000000000000000e+03 0.000000000000000000e+00
1.456000000000000000e+03 0.000000000000000000e+00
1.457000000000000000e+03 0.000000000000000000e+00
1.458000000000000000e+03 0.000000000000000000e+00
1.459000000000000000e+03 0.000000000000000000e+00
1.460000000000000000e+03 0.000000000000000000e+00
1.461000000000000000e+03 0.000000000000000000e+00
1.462000000000000000e+03 0.000000000000000000e+00
1.463000000000000000e+03 0.000000000000000000e+00
1.464000000000000000e+03 0.000000000000000000e+00
1.465000000000000000e+03 0.000000000000000000e+00
1.466000000000000000e+03 0.000000000000000000e+00
1.467000000000000000e+03 0.000000000000000000e+00
1.468000000000000000e+03 0.000000000000000000e+00
1.469000000000000000e+03 0.000000000000000000e+00
1.470000000000000000e+03 0.000000000000000000e+00
1.471000000000000000e+03 0.000000000000000000e+00
1.472000000000000000e+03 0.000000000000000000e+00
1.473000000000000000e+03 0.000000000000000000e+00
1.474000000000000000e+03 0.000000000000000000e+00
1.475000000000000000e+03 0.000000000000000000e+00
1.476000000000000000e+03 0.000000000000000000e+00
1.477000000000000000e+03 0.000000000000000000e+00
1.478000000000000000e+03 0.000000000000000000e+00
1.479000000000000000e+03 0.000000000000000000e+00
1.480000000000000000e+03 0.000000000000000000e+00
1.481000000000000000e+03 0.000000000000000000e+00
1.482000000000000000e+03 0.000000000000000000e+00
1.483000000000000000e+03 0.000000000000000000e+00
1.484000000000000000e+03 0.000000000000000000e+00
1.485000000000000000e+03 0.000000000000000000e+00
1.486000000000000000e+03 0.000000000000000000e+00
1.487000000000000000e+03 0.000000000000000000e+00
1.488000000000000000e+03 0.000000000000000000e+00
1.489000000000000000e+03 0.000000000000000000e+00
1.490000000000000000e+03 0.000000000000000000e+00
1.491000000000000000e+03 0.000000000000000000e+00
1.492000000000000000e+03 0.000000000000000000e+00
1.493000000000000000e+03 0.000000000000000000e+00
1.494000000000000000e+03 0.000000000000000000e+00
1.495000000000000000e+03 0.000000000000000000e+00
1.496000000000000000e+03 0.000000000000000000e+00
1.497000000000000000e+03 0.000000000000000000e+00
1.498000000000000000e+03 0.000000000000000000e+00
1.499000000000000000e+03 0.000000000000000000e+00
1.500000000000000000e+03 0.000000000000000000e+00
