1.010000000000000000e+02 0.000000000000000000e+00
1.020000000000000000e+02 0.000000000000000000e+00
1.030000000000000000e+02 0.000000000000000000e+00
1.040000000000000000e+02 0.000000000000000000e+00
1.050000000000000000e+02 0.000000000000000000e+00
1.060000000000000000e+02 0.000000000000000000e+00
1.070000000000000000e+02 0.000000000000000000e+00
1.080000000000000000e+02 0.000000000000000000e+00
1.090000000000000000e+02 0.000000000000000000e+00
1.100000000000000000e+02 0.000000000000000000e+00
1.110000000000000000e+02 0.000000000000000000e+00
1.120000000000000000e+02 0.000000000000000000e+00
1.130000000000000000e+02 0.000000000000000000e+00
1.140000000000000000e+02 0.000000000000000000e+00
1.150000000000000000e+02 0.000000000000000000e+00
1.160000000000000000e+02 0.000000000000000000e+00
1.170000000000000000e+02 0.000000000000000000e+00
1.180000000000000000e+02 0.000000000000000000e+00
1.190000000000000000e+02 0.000000000000000000e+00
1.200000000000000000e+02 0.000000000000000000e+00
1.210000000000000000e+02 0.000000000000000000e+00
1.220000000000000000e+02 0.000000000000000000e+00
1.230000000000000000e+02 0.000000000000000000e+00
1.240000000000000000e+02 0.000000000000000000e+00
1.250000000000000000e+02 1.147770134826794075e-01
1.260000000000000000e+02 2.271096818087531832e-01
1.270000000000000000e+02 7.175670548288777539e-02
1.280000000000000000e+02 8.492741827608425720e-02
1.290000000000000000e+02 7.303924212901921620e-02
1.300000000000000000e+02 3.338032180045599762e-01
1.310000000000000000e+02 5.856378506533914674e-01
1.320000000000000000e+02 8.197758518979486597e-01
1.330000000000000000e+02 1.162422461937357543e+00
1.340000000000000000e+02 1.272999730402321061e+00
1.350000000000000000e+02 2.114022118232742553e+00
1.360000000000000000e+02 3.487915777224655844e+00
1.370000000000000000e+02 5.097824551016176819e+00
1.380000000000000000e+02 6.892499105579749319e+00
1.390000000000000000e+02 7.779970364862058396e+00
1.400000000000000000e+02 8.009643230864964991e+00
1.410000000000000000e+02 7.626027726820157504e+00
1.420000000000000000e+02 6.679601334785314926e+00
1.430000000000000000e+02 6.910697904376680079e+00
1.440000000000000000e+02 7.171084470856668780e+00
1.450000000000000000e+02 7.368283455827459250e+00
1.460000000000000000e+02 7.906078958929682265e+00
1.470000000000000000e+02 8.549537600705242824e+00
1.480000000000000000e+02 8.689121626296142153e+00
1.490000000000000000e+02 9.356840649450330005e+00
1.500000000000000000e+02 1.093760912881145231e+01
1.510000000000000000e+02 1.204246093529654793e+01
1.520000000000000000e+02 1.245773174445135290e+01
1.530000000000000000e+02 1.303908727857291616e+01
1.540000000000000000e+02 1.380723299108069035e+01
1.550000000000000000e+02 1.459211494710640977e+01
1.560000000000000000e+02 1.410594912069680618e+01
1.570000000000000000e+02 1.289976955818293725e+01
1.580000000000000000e+02 1.213281690313213090e+01
1.590000000000000000e+02 1.241592562007465794e+01
1.600000000000000000e+02 1.225656527691350561e+01
1.610000000000000000e+02 1.218681090437668502e+01
1.620000000000000000e+02 1.222596730402322684e+01
1.630000000000000000e+02 1.214787632441402287e+01
1.640000000000000000e+02 1.157664731176105022e+01
1.650000000000000000e+02 1.201348625388924418e+01
1.660000000000000000e+02 1.272042503629952748e+01
1.670000000000000000e+02 1.305955455205308979e+01
1.680000000000000000e+02 1.285970186683260685e+01
1.690000000000000000e+02 1.329012046048536710e+01
1.700000000000000000e+02 1.414044404811282618e+01
1.710000000000000000e+02 1.484655414851690658e+01
1.720000000000000000e+02 1.505485095623314606e+01
1.730000000000000000e+02 1.526848104520945171e+01
1.740000000000000000e+02 1.634615059738645115e+01
1.750000000000000000e+02 1.707292088363410087e+01
1.760000000000000000e+02 1.691402235172127533e+01
1.770000000000000000e+02 1.724668507363617209e+01
1.780000000000000000e+02 1.738019896701928957e+01
1.790000000000000000e+02 1.849241489110143988e+01
1.800000000000000000e+02 2.035696078406969534e+01
1.810000000000000000e+02 2.134448716507672472e+01
1.820000000000000000e+02 2.211921920141049114e+01
1.830000000000000000e+02 2.350174053515869588e+01
1.840000000000000000e+02 2.492406929075072597e+01
1.850000000000000000e+02 2.588044323376891853e+01
1.860000000000000000e+02 2.833656120306986637e+01
1.870000000000000000e+02 3.186755146827046303e+01
1.880000000000000000e+02 3.605328778469198170e+01
1.890000000000000000e+02 4.292323467952704164e+01
1.900000000000000000e+02 5.569617623807534557e+01
1.910000000000000000e+02 6.516595018875761980e+01
1.920000000000000000e+02 7.274658885500937799e+01
1.930000000000000000e+02 8.044291286247664630e+01
1.940000000000000000e+02 8.873264644886947394e+01
1.950000000000000000e+02 9.572690560049777275e+01
1.960000000000000000e+02 1.032918832399917477e+02
1.970000000000000000e+02 1.113905686994399531e+02
1.980000000000000000e+02 1.193324157851067895e+02
1.990000000000000000e+02 1.269941394316531955e+02
2.000000000000000000e+02 1.377391805019706510e+02
2.010000000000000000e+02 1.510079816051431010e+02
2.020000000000000000e+02 1.661891019912880267e+02
2.030000000000000000e+02 1.835657667288942321e+02
2.040000000000000000e+02 2.031211872666944487e+02
2.050000000000000000e+02 2.271668911221738938e+02
2.060000000000000000e+02 2.564280322962040373e+02
2.070000000000000000e+02 2.901993425637830910e+02
2.080000000000000000e+02 3.241567247666462777e+02
2.090000000000000000e+02 3.514046201825348703e+02
2.100000000000000000e+02 3.525093813731591581e+02
2.110000000000000000e+02 3.143959165525828894e+02
2.120000000000000000e+02 2.398315226923873524e+02
2.130000000000000000e+02 1.639999608587425257e+02
2.140000000000000000e+02 1.057461797261978234e+02
2.150000000000000000e+02 6.830551502488613380e+01
2.160000000000000000e+02 4.687685907902947946e+01
2.170000000000000000e+02 3.480932481020525415e+01
2.180000000000000000e+02 2.634585830360844838e+01
2.190000000000000000e+02 2.013388130056006986e+01
2.200000000000000000e+02 1.576867295581832984e+01
2.210000000000000000e+02 1.244365421904166524e+01
2.220000000000000000e+02 9.782940672682006067e+00
2.230000000000000000e+02 8.103596745073637919e+00
2.240000000000000000e+02 7.100317127359478064e+00
2.250000000000000000e+02 6.093301278158061329e+00
2.260000000000000000e+02 4.797672836167557797e+00
2.270000000000000000e+02 3.361352428334372533e+00
2.280000000000000000e+02 2.890925833851894833e+00
2.290000000000000000e+02 3.284898902322688663e+00
2.300000000000000000e+02 2.800884397635340584e+00
2.310000000000000000e+02 1.867043736984026037e+00
2.320000000000000000e+02 1.436921792202406456e+00
2.330000000000000000e+02 1.275635459240826775e+00
2.340000000000000000e+02 6.788330180460384611e-01
2.350000000000000000e+02 2.825652843808346137e-01
2.360000000000000000e+02 1.512981435386839268e-01
2.370000000000000000e+02 2.317536637949037526e-01
2.380000000000000000e+02 3.863131186475856627e-01
2.390000000000000000e+02 3.661101263223391356e-01
2.400000000000000000e+02 1.682582953131484538e-01
2.410000000000000000e+02 2.819267268201579579e-01
2.420000000000000000e+02 4.214723432897732880e-01
2.430000000000000000e+02 2.269243278722518076e-01
2.440000000000000000e+02 5.295854007467328817e-01
2.450000000000000000e+02 9.338851445758116210e-01
2.460000000000000000e+02 1.157662117195602747e+00
2.470000000000000000e+02 1.157648320887782578e+00
2.480000000000000000e+02 1.082298508400745929e+00
2.490000000000000000e+02 6.097411300560077185e-01
2.500000000000000000e+02 3.730952787803359372e-01
2.510000000000000000e+02 2.403007231439199254e-01
2.520000000000000000e+02 9.881321957083655239e-02
2.530000000000000000e+02 2.151287853142499484e-01
2.540000000000000000e+02 3.063832621318945959e-01
2.550000000000000000e+02 2.333693374818478772e-01
2.560000000000000000e+02 6.369726409023075686e-02
2.570000000000000000e+02 3.348253446702591507e-01
2.580000000000000000e+02 6.927829950217768706e-01
2.590000000000000000e+02 4.787937226716516004e-01
2.600000000000000000e+02 8.307038148786528853e-02
2.610000000000000000e+02 7.730825969715839074e-02
2.620000000000000000e+02 5.890426247666435966e-01
2.630000000000000000e+02 9.805418294959575842e-01
2.640000000000000000e+02 7.547034451358561880e-01
2.650000000000000000e+02 5.802637268201646936e-01
2.660000000000000000e+02 1.441760660443899722e+00
2.670000000000000000e+02 1.012183548848773373e+00
2.680000000000000000e+02 3.407093329184938679e-01
2.690000000000000000e+02 3.758019354905480780e-01
2.700000000000000000e+02 9.596678516905261525e-01
2.710000000000000000e+02 8.659925233354086593e-01
2.720000000000000000e+02 1.231599032980700281e+00
2.730000000000000000e+02 5.359384401872872017e-01
2.740000000000000000e+02 1.889333563576011399e-01
2.750000000000000000e+02 1.045826668326065301e+00
2.760000000000000000e+02 1.863338392783078445e+00
2.770000000000000000e+02 9.132743466085778694e-01
2.780000000000000000e+02 4.171930829703389687e-01
2.790000000000000000e+02 1.443975746785575387e+00
2.800000000000000000e+02 2.552740945239586612e+00
2.810000000000000000e+02 2.528717401991285030e+00
2.820000000000000000e+02 2.452285302364162423e+00
2.830000000000000000e+02 2.918220497199768282e+00
2.840000000000000000e+02 3.827904859157867712e+00
2.850000000000000000e+02 4.646988361260875777e+00
2.860000000000000000e+02 5.072048943995014270e+00
2.870000000000000000e+02 5.386158196847136814e+00
2.880000000000000000e+02 5.815955696950834586e+00
2.890000000000000000e+02 6.529582315287268734e+00
2.900000000000000000e+02 7.730312001659043197e+00
2.910000000000000000e+02 9.243285403858118698e+00
2.920000000000000000e+02 1.056837189379795916e+01
2.930000000000000000e+02 1.180769611491393789e+01
2.940000000000000000e+02 1.365663817880109221e+01
2.950000000000000000e+02 1.512990474797759965e+01
2.960000000000000000e+02 1.773639866832614587e+01
2.970000000000000000e+02 2.131097036092102570e+01
2.980000000000000000e+02 2.506052502385401226e+01
2.990000000000000000e+02 2.909979791537014293e+01
3.000000000000000000e+02 3.388900846919741383e+01
3.010000000000000000e+02 4.094360283077575247e+01
3.020000000000000000e+02 4.970817329392226469e+01
3.030000000000000000e+02 5.981212318813492601e+01
3.040000000000000000e+02 7.507421202405602401e+01
3.050000000000000000e+02 9.539113578095809487e+01
3.060000000000000000e+02 1.201135613565646310e+02
3.070000000000000000e+02 1.503943576524261516e+02
3.080000000000000000e+02 1.869519318813523796e+02
3.090000000000000000e+02 2.225068466085872103e+02
3.100000000000000000e+02 2.580044421401910881e+02
3.110000000000000000e+02 2.920736961833647456e+02
3.120000000000000000e+02 3.244419333333334521e+02
3.130000000000000000e+02 3.583659536706768449e+02
3.140000000000000000e+02 3.978753050404487794e+02
3.150000000000000000e+02 4.438487286869933541e+02
3.160000000000000000e+02 4.972765503837363212e+02
3.170000000000000000e+02 5.594329433727459673e+02
3.180000000000000000e+02 6.326552586392855346e+02
3.190000000000000000e+02 7.171173754822634692e+02
3.200000000000000000e+02 8.156292883011798267e+02
3.210000000000000000e+02 9.259998984028206905e+02
3.220000000000000000e+02 1.037401830118231828e+03
3.230000000000000000e+02 1.135263251400123181e+03
3.240000000000000000e+02 1.197602080273802358e+03
3.250000000000000000e+02 1.200656645924082113e+03
3.260000000000000000e+02 1.128697655050819776e+03
3.270000000000000000e+02 9.672932181082735497e+02
3.280000000000000000e+02 7.662756899813299469e+02
3.290000000000000000e+02 5.830689461012016181e+02
3.300000000000000000e+02 4.350975179215901107e+02
3.310000000000000000e+02 3.238288701099342006e+02
3.320000000000000000e+02 2.484441438822065891e+02
3.330000000000000000e+02 1.937601504044815499e+02
3.340000000000000000e+02 1.551144584318597879e+02
3.350000000000000000e+02 1.275276782870178067e+02
3.360000000000000000e+02 1.058094631404276242e+02
3.370000000000000000e+02 8.855403228375890023e+01
3.380000000000000000e+02 7.615648902302429235e+01
3.390000000000000000e+02 6.625250666459247384e+01
3.400000000000000000e+02 5.780876217751961121e+01
3.410000000000000000e+02 5.103040067205969876e+01
3.420000000000000000e+02 4.442184225886744997e+01
3.430000000000000000e+02 3.858667968263835490e+01
3.440000000000000000e+02 3.446222330636793174e+01
3.450000000000000000e+02 3.133539687201821522e+01
3.460000000000000000e+02 2.747071787388509634e+01
3.470000000000000000e+02 2.465819635967635648e+01
3.480000000000000000e+02 2.208735063264877851e+01
3.490000000000000000e+02 1.977442000000003830e+01
3.500000000000000000e+02 1.784352301597183654e+01
3.510000000000000000e+02 1.600885670192903021e+01
3.520000000000000000e+02 1.402772281269448129e+01
3.530000000000000000e+02 1.307129270898154694e+01
3.540000000000000000e+02 1.216069505599339529e+01
3.550000000000000000e+02 1.075288244555071770e+01
3.560000000000000000e+02 1.022096678904791922e+01
3.570000000000000000e+02 9.749774628992122771e+00
3.580000000000000000e+02 9.136032653391408687e+00
3.590000000000000000e+02 8.396061721012237911e+00
3.600000000000000000e+02 7.849393860638737230e+00
3.610000000000000000e+02 7.775828144368384542e+00
3.620000000000000000e+02 6.770020897760276490e+00
3.630000000000000000e+02 6.518929726820148041e+00
3.640000000000000000e+02 6.843268934246008683e+00
3.650000000000000000e+02 6.669365717129823956e+00
3.660000000000000000e+02 6.375179383945243750e+00
3.670000000000000000e+02 6.666301160755023325e+00
3.680000000000000000e+02 6.678872132959967622e+00
3.690000000000000000e+02 6.569525881559836300e+00
3.700000000000000000e+02 6.856418205351595851e+00
3.710000000000000000e+02 6.083171143123832003e+00
3.720000000000000000e+02 6.686490592408213196e+00
3.730000000000000000e+02 7.057431862269242018e+00
3.740000000000000000e+02 6.671336135449072557e+00
3.750000000000000000e+02 6.537286153080274609e+00
3.760000000000000000e+02 6.923365454055176116e+00
3.770000000000000000e+02 6.710334987554437802e+00
3.780000000000000000e+02 6.664063505081937677e+00
3.790000000000000000e+02 6.874526143123834032e+00
3.800000000000000000e+02 6.652569784691980459e+00
3.810000000000000000e+02 6.116183764779083987e+00
3.820000000000000000e+02 5.973448584819576190e+00
3.830000000000000000e+02 5.759020270898163041e+00
3.840000000000000000e+02 5.253578257362097936e+00
3.850000000000000000e+02 4.872871029869322079e+00
3.860000000000000000e+02 4.890820484339347907e+00
3.870000000000000000e+02 5.248212785566154004e+00
3.880000000000000000e+02 4.730997872847949814e+00
3.890000000000000000e+02 3.833242563161169958e+00
3.900000000000000000e+02 4.090595745126506699e+00
3.910000000000000000e+02 4.014724913088565827e+00
3.920000000000000000e+02 2.767827145198077599e+00
3.930000000000000000e+02 1.789393941103262886e+00
3.940000000000000000e+02 1.678339424393281432e+00
3.950000000000000000e+02 1.757603873262808758e+00
3.960000000000000000e+02 1.755478115536196482e+00
3.970000000000000000e+02 1.811602074051027689e+00
3.980000000000000000e+02 1.463517619788403223e+00
3.990000000000000000e+02 8.310801437461132757e-01
4.000000000000000000e+02 7.186124316531850020e-01
4.010000000000000000e+02 6.476772978635135791e-01
4.020000000000000000e+02 9.006664015764355158e-01
4.030000000000000000e+02 7.845586172993203045e-01
4.040000000000000000e+02 2.328093103090701499e-01
4.050000000000000000e+02 5.517920684940827436e-02
4.060000000000000000e+02 1.069458673522091507e-01
4.070000000000000000e+02 3.397005999439997592e-02
4.080000000000000000e+02 1.571857579340383282e-01
4.090000000000000000e+02 1.078053973454990433e-01
4.100000000000000000e+02 1.746467404152463043e-02
4.110000000000000000e+02 1.857106845052891586e-01
4.120000000000000000e+02 9.604148299461162663e-02
4.130000000000000000e+02 3.091096901057895918e-01
4.140000000000000000e+02 1.747056594067564750e-01
4.150000000000000000e+02 6.598805607631708092e-01
4.160000000000000000e+02 4.010883897531677400e-01
4.170000000000000000e+02 2.377405631611699266e-01
4.180000000000000000e+02 3.532653181252588537e-01
4.190000000000000000e+02 4.137643860194982204e-01
4.200000000000000000e+02 2.584088431860612212e-01
4.210000000000000000e+02 1.033011158680774866e+00
4.220000000000000000e+02 8.412831020535125326e-01
4.230000000000000000e+02 6.783548048122800544e-01
4.240000000000000000e+02 7.342206457166451372e-01
4.250000000000000000e+02 1.931208813524083467e-01
4.260000000000000000e+02 3.536333621655271542e-01
4.270000000000000000e+02 1.970558953820773784e-01
4.280000000000000000e+02 6.737086911429178704e-01
4.290000000000000000e+02 5.217512489110073259e-01
4.300000000000000000e+02 1.369196524550967964e-01
4.310000000000000000e+02 1.631676832607308614e-01
4.320000000000000000e+02 4.951154928438065705e-01
4.330000000000000000e+02 3.730584876581661824e-01
4.340000000000000000e+02 1.488817560947914564e-01
4.350000000000000000e+02 4.218412387471475178e-01
4.360000000000000000e+02 2.296865972657129440e-01
4.370000000000000000e+02 2.304243902944831945e-01
4.380000000000000000e+02 1.550646316117013368e-01
4.390000000000000000e+02 4.224871767268201794e-01
4.400000000000000000e+02 4.071036880962272675e-01
4.410000000000000000e+02 5.642156726820179991e-01
4.420000000000000000e+02 3.815459120514369529e-01
4.430000000000000000e+02 1.886367175445883282e-01
4.440000000000000000e+02 3.847515322547056527e-01
4.450000000000000000e+02 9.040274841319339005e-01
4.460000000000000000e+02 1.119081010161756984e+00
4.470000000000000000e+02 1.222669623107236481e+00
4.480000000000000000e+02 2.813517034640076186e+00
4.490000000000000000e+02 3.665977590333960645e+00
4.500000000000000000e+02 2.425421491599261792e+00
4.510000000000000000e+02 1.824219518979460997e+00
4.520000000000000000e+02 2.694728164281273042e+00
4.530000000000000000e+02 2.491284021157436523e+00
4.540000000000000000e+02 2.125122876166767760e+00
4.550000000000000000e+02 2.479364122588675556e+00
4.560000000000000000e+02 2.407524433105164618e+00
4.570000000000000000e+02 2.572066913503425312e+00
4.580000000000000000e+02 2.965692399087336728e+00
4.590000000000000000e+02 3.445986436838838873e+00
4.600000000000000000e+02 3.713771415681392352e+00
4.610000000000000000e+02 3.516871808753376794e+00
4.620000000000000000e+02 3.199422102447120331e+00
4.630000000000000000e+02 3.557843816428120753e+00
4.640000000000000000e+02 3.972030321095203931e+00
4.650000000000000000e+02 4.393780659477379835e+00
4.660000000000000000e+02 5.063820208877825912e+00
4.670000000000000000e+02 4.832439205351587219e+00
4.680000000000000000e+02 5.242304242430526173e+00
4.690000000000000000e+02 5.836333169881770644e+00
4.700000000000000000e+02 6.291466527483924764e+00
4.710000000000000000e+02 6.621145015761099373e+00
4.720000000000000000e+02 6.916341239369429239e+00
4.730000000000000000e+02 7.202213596764159398e+00
4.740000000000000000e+02 7.841924566984632250e+00
4.750000000000000000e+02 8.147323932379162414e+00
4.760000000000000000e+02 8.016114751089000734e+00
4.770000000000000000e+02 8.944392196847111620e+00
4.780000000000000000e+02 9.595110379589288030e+00
4.790000000000000000e+02 9.784930523335408026e+00
4.800000000000000000e+02 1.003721309935697548e+01
4.810000000000000000e+02 1.041778989213855944e+01
4.820000000000000000e+02 1.058268172993155076e+01
4.830000000000000000e+02 1.111888518979464635e+01
4.840000000000000000e+02 1.168186764571665215e+01
4.850000000000000000e+02 1.186309437046255866e+01
4.860000000000000000e+02 1.195333756274632009e+01
4.870000000000000000e+02 1.239710841319228329e+01
4.880000000000000000e+02 1.246427673304293826e+01
4.890000000000000000e+02 1.277874154739681245e+01
4.900000000000000000e+02 1.319184191206968393e+01
4.910000000000000000e+02 1.358571499066582966e+01
4.920000000000000000e+02 1.386840179838207909e+01
4.930000000000000000e+02 1.393092921194525147e+01
4.940000000000000000e+02 1.439454770172162235e+01
4.950000000000000000e+02 1.518990698402818929e+01
4.960000000000000000e+02 1.585700288469513985e+01
4.970000000000000000e+02 1.615192306782824971e+01
4.980000000000000000e+02 1.621694210122381463e+01
4.990000000000000000e+02 1.620225098299460953e+01
5.000000000000000000e+02 1.593581322547189316e+01
5.010000000000000000e+02 1.594853122588674488e+01
5.020000000000000000e+02 1.629013457996266467e+01
5.030000000000000000e+02 1.664235762289981579e+01
5.040000000000000000e+02 1.702447994608046500e+01
5.050000000000000000e+02 1.698698065339140939e+01
5.060000000000000000e+02 1.693507882389545927e+01
5.070000000000000000e+02 1.687550630858564915e+01
5.080000000000000000e+02 1.660369895042523680e+01
5.090000000000000000e+02 1.618158855216759306e+01
5.100000000000000000e+02 1.627330229780174164e+01
5.110000000000000000e+02 1.626816136278780789e+01
5.120000000000000000e+02 1.609752582451773861e+01
5.130000000000000000e+02 1.579394372459560181e+01
5.140000000000000000e+02 1.537227889234598699e+01
5.150000000000000000e+02 1.561013088363409729e+01
5.160000000000000000e+02 1.550528639079029247e+01
5.170000000000000000e+02 1.545488744036507001e+01
5.180000000000000000e+02 1.506206819369557870e+01
5.190000000000000000e+02 1.396670566065131780e+01
5.200000000000000000e+02 1.366440380833852331e+01
5.210000000000000000e+02 1.316995686437163471e+01
5.220000000000000000e+02 1.304068649657747159e+01
5.230000000000000000e+02 1.294714110143124408e+01
5.240000000000000000e+02 1.251459975321443885e+01
5.250000000000000000e+02 1.202082444928438498e+01
5.260000000000000000e+02 1.178184147687202277e+01
5.270000000000000000e+02 1.147214759021153263e+01
5.280000000000000000e+02 1.130452723501348444e+01
5.290000000000000000e+02 1.098032910392036676e+01
5.300000000000000000e+02 1.015444428749222006e+01
5.310000000000000000e+02 9.574749500725989293e+00
5.320000000000000000e+02 9.101454325658577815e+00
5.330000000000000000e+02 8.992553845052892569e+00
5.340000000000000000e+02 8.762453386434334135e+00
5.350000000000000000e+02 8.246665275254093430e+00
5.360000000000000000e+02 8.022697293922432138e+00
5.370000000000000000e+02 6.992932693488189244e+00
5.380000000000000000e+02 6.945145123833223799e+00
5.390000000000000000e+02 7.266113202862472420e+00
5.400000000000000000e+02 6.994677444628790042e+00
5.410000000000000000e+02 6.137159700684515329e+00
5.420000000000000000e+02 5.890418114499069269e+00
5.430000000000000000e+02 6.026027623522090870e+00
5.440000000000000000e+02 5.679200046670816349e+00
5.450000000000000000e+02 5.256732953121759699e+00
5.460000000000000000e+02 5.245700167807505032e+00
5.470000000000000000e+02 5.292540321302622530e+00
5.480000000000000000e+02 4.234944066583681277e+00
5.490000000000000000e+02 4.315776945861845348e+00
5.500000000000000000e+02 4.125915344326930523e+00
5.510000000000000000e+02 3.548200133167398018e+00
5.520000000000000000e+02 3.680460711678069874e+00
5.530000000000000000e+02 3.956936121966396325e+00
5.540000000000000000e+02 3.070672001866880496e+00
5.550000000000000000e+02 2.800043503007671575e+00
5.560000000000000000e+02 3.066117499274004121e+00
5.570000000000000000e+02 3.038427194110343788e+00
5.580000000000000000e+02 2.533272316116990552e+00
5.590000000000000000e+02 2.388401238124870929e+00
5.600000000000000000e+02 2.277866432600581081e+00
5.610000000000000000e+02 2.337844550093343798e+00
5.620000000000000000e+02 2.264227209085245995e+00
5.630000000000000000e+02 1.892202801742020712e+00
5.640000000000000000e+02 1.974210001659412628e+00
5.650000000000000000e+02 2.248105968056427262e+00
5.660000000000000000e+02 2.064301944214036233e+00
5.670000000000000000e+02 1.844698699439953016e+00
5.680000000000000000e+02 1.901046131715406817e+00
5.690000000000000000e+02 2.011067176275401103e+00
5.700000000000000000e+02 2.040034557768108936e+00
5.710000000000000000e+02 1.647965472308663415e+00
5.720000000000000000e+02 1.519301622899811077e+00
5.730000000000000000e+02 1.759502389753157869e+00
5.740000000000000000e+02 1.740027551752763246e+00
5.750000000000000000e+02 1.057284839659820896e+00
5.760000000000000000e+02 1.584653476042317211e+00
5.770000000000000000e+02 1.232167434557142727e+00
5.780000000000000000e+02 1.286231285417986037e+00
5.790000000000000000e+02 1.524710194772861405e+00
5.800000000000000000e+02 1.060201515245791093e+00
5.810000000000000000e+02 1.007448677660237157e+00
5.820000000000000000e+02 1.046722035469821677e+00
5.830000000000000000e+02 1.045666681667357212e+00
5.840000000000000000e+02 1.067988101617585395e+00
5.850000000000000000e+02 9.523512020327814520e-01
5.860000000000000000e+02 5.865138998133196946e-01
5.870000000000000000e+02 5.362183836582324892e-01
5.880000000000000000e+02 6.301690109935701445e-01
5.890000000000000000e+02 8.439309458618545756e-01
5.900000000000000000e+02 8.028834039817450696e-01
5.910000000000000000e+02 4.914735084007419985e-01
5.920000000000000000e+02 4.441701414644279589e-01
5.930000000000000000e+02 6.182928222729090484e-01
5.940000000000000000e+02 3.868160487450558738e-01
5.950000000000000000e+02 2.515739713752330187e-01
5.960000000000000000e+02 3.737962770634511434e-01
5.970000000000000000e+02 4.284721373159262048e-01
5.980000000000000000e+02 1.043488609558243380e-01
5.990000000000000000e+02 7.950979411076262993e-02
6.000000000000000000e+02 1.856103590541312853e-01
6.010000000000000000e+02 9.079994604853436346e-01
6.020000000000000000e+02 1.217540948765819753e+00
6.030000000000000000e+02 2.232217506558839548e-01
6.040000000000000000e+02 1.339093945239572259e-01
6.050000000000000000e+02 6.710582590043757956e-02
6.060000000000000000e+02 1.020810517958959523e-01
6.070000000000000000e+02 1.551584801908301170e-01
6.080000000000000000e+02 1.919971159033034835e-02
6.090000000000000000e+02 6.576212292097411913e-03
6.100000000000000000e+02 3.960055232622815280e-02
6.110000000000000000e+02 5.423656986102609601e-01
6.120000000000000000e+02 4.125072416510927598e-01
6.130000000000000000e+02 1.743223351306542601e-01
6.140000000000000000e+02 1.509195656789136253e-01
6.150000000000000000e+02 4.845256837949941942e-02
6.160000000000000000e+02 5.624049166321252180e-01
6.170000000000000000e+02 1.079991231694666043e+00
6.180000000000000000e+02 4.590181692595044494e-01
6.190000000000000000e+02 5.516306345914492870e-02
6.200000000000000000e+02 2.075824235635774506e-01
6.210000000000000000e+02 1.905380906450940548e-01
6.220000000000000000e+02 2.262267718788904536e-01
6.230000000000000000e+02 4.432651437461188060e-01
6.240000000000000000e+02 2.705337006844970582e-01
6.250000000000000000e+02 4.901903765671287994e-02
6.260000000000000000e+02 5.982222345965849258e-02
6.270000000000000000e+02 1.309171515034170674e-01
6.280000000000000000e+02 5.486987598008805644e-01
6.290000000000000000e+02 2.225141360713374650e-01
6.300000000000000000e+02 1.258897714167244997e-01
6.310000000000000000e+02 2.400183735739511715e-01
6.320000000000000000e+02 1.824334524903569732e-01
6.330000000000000000e+02 6.015419110143144232e-01
6.340000000000000000e+02 4.936683704625582370e-01
6.350000000000000000e+02 1.656428676623088736e-01
6.360000000000000000e+02 3.522854683675576415e-01
6.370000000000000000e+02 1.796188477809977646e-01
6.380000000000000000e+02 9.269430581021954885e-02
6.390000000000000000e+02 4.275865515453245447e-01
6.400000000000000000e+02 3.327651625881283270e-01
6.410000000000000000e+02 1.188547357394761361e-01
6.420000000000000000e+02 1.392528373988867640e+00
6.430000000000000000e+02 2.572636921194495496e+00
6.440000000000000000e+02 1.505624138353049535e+00
6.450000000000000000e+02 1.252339641775571666e+00
6.460000000000000000e+02 2.306781733720314753e-01
6.470000000000000000e+02 2.393344591163661050e+00
6.480000000000000000e+02 2.119460056834683304e+00
6.490000000000000000e+02 6.383461109498023145e-01
6.500000000000000000e+02 1.072890884048956384e+00
6.510000000000000000e+02 8.315682856254015265e-01
6.520000000000000000e+02 1.993325693217187000e+00
6.530000000000000000e+02 1.816250499896275850e+00
6.540000000000000000e+02 1.720460769342463614e+00
6.550000000000000000e+02 1.924926729309268669e+00
6.560000000000000000e+02 1.689924730553820975e+00
6.570000000000000000e+02 1.363868315287284361e+00
6.580000000000000000e+02 1.558358194980299594e+00
6.590000000000000000e+02 1.680751543455715202e+00
6.600000000000000000e+02 1.846684197884256529e+00
6.610000000000000000e+02 2.193601949595517464e+00
6.620000000000000000e+02 2.524845046878239518e+00
6.630000000000000000e+02 2.615719118855009295e+00
6.640000000000000000e+02 2.876941824517733615e+00
6.650000000000000000e+02 2.633770415681393029e+00
6.660000000000000000e+02 2.285065379925343088e+00
6.670000000000000000e+02 2.191195012030699996e+00
6.680000000000000000e+02 2.558402064509436968e+00
6.690000000000000000e+02 3.165803272086271214e+00
6.700000000000000000e+02 2.908923163036713611e+00
6.710000000000000000e+02 3.118324831362785599e+00
6.720000000000000000e+02 3.203073877644130985e+00
6.730000000000000000e+02 3.288495778469197717e+00
6.740000000000000000e+02 3.660556953951457970e+00
6.750000000000000000e+02 3.991514311903774370e+00
6.760000000000000000e+02 3.598596673511720745e+00
6.770000000000000000e+02 3.682840133997093091e+00
6.780000000000000000e+02 4.332054374818503639e+00
6.790000000000000000e+02 4.525030620203267517e+00
6.800000000000000000e+02 4.225623299315496517e+00
6.810000000000000000e+02 4.387716393071976917e+00
6.820000000000000000e+02 4.500324336859575780e+00
6.830000000000000000e+02 4.864627799834060795e+00
6.840000000000000000e+02 5.396101369632853029e+00
6.850000000000000000e+02 5.549370761045424594e+00
6.860000000000000000e+02 5.454017333333332829e+00
6.870000000000000000e+02 5.722150835511301104e+00
6.880000000000000000e+02 6.119212138145615043e+00
6.890000000000000000e+02 6.437582540136899567e+00
6.900000000000000000e+02 6.854420602779500271e+00
6.910000000000000000e+02 7.295770391205144811e+00
6.920000000000000000e+02 7.439211139597593281e+00
6.930000000000000000e+02 7.556854573828272414e+00
6.940000000000000000e+02 8.688471650280023439e+00
6.950000000000000000e+02 9.165469040033181969e+00
6.960000000000000000e+02 1.028492811281624597e+01
6.970000000000000000e+02 1.102955160547604052e+01
6.980000000000000000e+02 1.140360818917236330e+01
6.990000000000000000e+02 1.208526813562836111e+01
7.000000000000000000e+02 1.310732759800870184e+01
7.010000000000000000e+02 1.385854765816219292e+01
7.020000000000000000e+02 1.479785666943176281e+01
7.030000000000000000e+02 1.653859545115118479e+01
7.040000000000000000e+02 1.803486016801491232e+01
7.050000000000000000e+02 1.926458071976768238e+01
7.060000000000000000e+02 2.122161531632441012e+01
7.070000000000000000e+02 2.283339468574984110e+01
7.080000000000000000e+02 2.518111382078404148e+01
7.090000000000000000e+02 2.738059935075714790e+01
7.100000000000000000e+02 2.986099045011414077e+01
7.110000000000000000e+02 3.268330658162202695e+01
7.120000000000000000e+02 3.590444362165515457e+01
7.130000000000000000e+02 4.047681134619355703e+01
7.140000000000000000e+02 4.574379552582441733e+01
7.150000000000000000e+02 4.936650272557551489e+01
7.160000000000000000e+02 5.402768528313605856e+01
7.170000000000000000e+02 6.009287375233338935e+01
7.180000000000000000e+02 6.670656004978199860e+01
7.190000000000000000e+02 7.404183995437556121e+01
7.200000000000000000e+02 8.313638929475204975e+01
7.210000000000000000e+02 9.685676390790281687e+01
7.220000000000000000e+02 1.063568024056408206e+02
7.230000000000000000e+02 1.153668318606100058e+02
7.240000000000000000e+02 1.273650922215309578e+02
7.250000000000000000e+02 1.405219217337199211e+02
7.260000000000000000e+02 1.550475396930731051e+02
7.270000000000000000e+02 1.707275215930301613e+02
7.280000000000000000e+02 1.864539088155979698e+02
7.290000000000000000e+02 2.020884079220237766e+02
7.300000000000000000e+02 2.179215825969711773e+02
7.310000000000000000e+02 2.342644278780330467e+02
7.320000000000000000e+02 2.508634772868697951e+02
7.330000000000000000e+02 2.657765068865379021e+02
7.340000000000000000e+02 2.772172943995020660e+02
7.350000000000000000e+02 2.860568890686579948e+02
7.360000000000000000e+02 2.907367224019913010e+02
7.370000000000000000e+02 2.899365588259697120e+02
7.380000000000000000e+02 2.837697834059326283e+02
7.390000000000000000e+02 2.716312104750047070e+02
7.400000000000000000e+02 2.550096914747972221e+02
7.410000000000000000e+02 2.351832371499695284e+02
7.420000000000000000e+02 2.130900309686796277e+02
7.430000000000000000e+02 1.899403094586197085e+02
7.440000000000000000e+02 1.674711148724338727e+02
7.450000000000000000e+02 1.477850662103305410e+02
7.460000000000000000e+02 1.296666720862719160e+02
7.470000000000000000e+02 1.127996824102885824e+02
7.480000000000000000e+02 9.836168290396207681e+01
7.490000000000000000e+02 8.556185361053518079e+01
7.500000000000000000e+02 7.410703696950835706e+01
7.510000000000000000e+02 6.435979073843597575e+01
7.520000000000000000e+02 5.523089321443371347e+01
7.530000000000000000e+02 4.782967313627860051e+01
7.540000000000000000e+02 4.162199970130664184e+01
7.550000000000000000e+02 3.587240090833704897e+01
7.560000000000000000e+02 3.065089510889833591e+01
7.570000000000000000e+02 2.601678627255735066e+01
7.580000000000000000e+02 2.188993504044815452e+01
7.590000000000000000e+02 1.940283929682649600e+01
7.600000000000000000e+02 1.687487907902936612e+01
7.610000000000000000e+02 1.436710908317781765e+01
7.620000000000000000e+02 1.231986885708363211e+01
7.630000000000000000e+02 1.073185696950843848e+01
7.640000000000000000e+02 9.279522449906659531e+00
7.650000000000000000e+02 7.962573259074883225e+00
7.660000000000000000e+02 7.148929711470652926e+00
7.670000000000000000e+02 5.891156267994165141e+00
7.680000000000000000e+02 4.894439807716226554e+00
7.690000000000000000e+02 4.146645176726806881e+00
7.700000000000000000e+02 3.734207201617916194e+00
7.710000000000000000e+02 3.536961290811016401e+00
7.720000000000000000e+02 2.483376865615906759e+00
7.730000000000000000e+02 2.072618954790537149e+00
7.740000000000000000e+02 2.070789265090227094e+00
7.750000000000000000e+02 2.301602612735941911e+00
7.760000000000000000e+02 1.999583779137309225e+00
7.770000000000000000e+02 1.203038333955613437e+00
7.780000000000000000e+02 8.039699290603642412e-01
7.790000000000000000e+02 3.214325089174591144e-01
7.800000000000000000e+02 4.991301485438479763e-02
7.810000000000000000e+02 1.667188121505943366e-01
7.820000000000000000e+02 2.578206524263794153e-01
7.830000000000000000e+02 5.846392556688409514e-02
7.840000000000000000e+02 4.283948848786675034e-01
7.850000000000000000e+02 4.331802267164791553e-01
7.860000000000000000e+02 1.184317079444168752e-01
7.870000000000000000e+02 9.876831565400685797e-02
7.880000000000000000e+02 6.352875247790383539e-02
7.890000000000000000e+02 3.103372101223719759e-01
7.900000000000000000e+02 3.269979172371049736e-01
7.910000000000000000e+02 7.174941962642550353e-02
7.920000000000000000e+02 3.190277573117552001e-01
7.930000000000000000e+02 7.287855677245387298e-01
7.940000000000000000e+02 2.371281989213855079e-01
7.950000000000000000e+02 3.925540454660945144e-01
7.960000000000000000e+02 5.571175108898523964e-01
7.970000000000000000e+02 4.674295108898700590e-01
7.980000000000000000e+02 9.566651495540423600e-01
7.990000000000000000e+02 6.060499025300675191e-01
8.000000000000000000e+02 4.733243565650115392e-01
8.010000000000000000e+02 5.997213378968012376e-02
8.020000000000000000e+02 9.696440771463492314e-02
8.030000000000000000e+02 1.642598494088423622e-01
8.040000000000000000e+02 1.526678960684418607e-01
8.050000000000000000e+02 1.995057732138285633e-01
8.060000000000000000e+02 4.028383036714506815e-01
8.070000000000000000e+02 3.534699937149924143e+00
8.080000000000000000e+02 1.668482834923162628e+00
8.090000000000000000e+02 3.340735938601946398e-01
8.100000000000000000e+02 6.047062787803367812e-01
8.110000000000000000e+02 6.473045572376547874e-01
8.120000000000000000e+02 1.611448609829874701e-01
8.130000000000000000e+02 2.341262611491402024e-01
8.140000000000000000e+02 1.793157815805740407e-01
8.150000000000000000e+02 3.538272794026221524e-01
8.160000000000000000e+02 6.107572829288531180e-01
8.170000000000000000e+02 5.430425654428507887e-01
8.180000000000000000e+02 4.829483486828467509e-01
8.190000000000000000e+02 4.936460008295291413e-01
8.200000000000000000e+02 4.518883229620435094e-01
8.210000000000000000e+02 8.449574595603538407e-01
8.220000000000000000e+02 4.745558112424816954e-01
8.230000000000000000e+02 2.475347066998549173e-01
8.240000000000000000e+02 6.940186758606516904e-01
8.250000000000000000e+02 1.276052300560058583e+00
8.260000000000000000e+02 1.338437148724325176e+00
8.270000000000000000e+02 9.945169153702623221e-01
8.280000000000000000e+02 1.258630986517320638e+00
8.290000000000000000e+02 1.081234393279400186e+00
8.300000000000000000e+02 8.189888120721815490e-01
8.310000000000000000e+02 1.145467240613990745e+00
8.320000000000000000e+02 1.496079365484338952e+00
8.330000000000000000e+02 1.407157902924704551e+00
8.340000000000000000e+02 1.500329667081520046e+00
8.350000000000000000e+02 1.684373175482265061e+00
8.360000000000000000e+02 1.189623332088782126e+00
8.370000000000000000e+02 1.356451981331669554e+00
8.380000000000000000e+02 1.696646168637211405e+00
8.390000000000000000e+02 2.040100413192288631e+00
8.400000000000000000e+02 2.154206886745487104e+00
8.410000000000000000e+02 1.695416706345914681e+00
8.420000000000000000e+02 1.736410200788220060e+00
8.430000000000000000e+02 2.023593818917237108e+00
8.440000000000000000e+02 1.912545042306097454e+00
8.450000000000000000e+02 1.730710858742999125e+00
8.460000000000000000e+02 2.014776483094790294e+00
8.470000000000000000e+02 2.251389393405225814e+00
8.480000000000000000e+02 2.037362073428749198e+00
8.490000000000000000e+02 2.281877271727855483e+00
8.500000000000000000e+02 2.220574823309829693e+00
8.510000000000000000e+02 2.028745913295997294e+00
8.520000000000000000e+02 2.609266965774724056e+00
8.530000000000000000e+02 2.979442787181082242e+00
8.540000000000000000e+02 2.568108600705243827e+00
8.550000000000000000e+02 2.789749430734094204e+00
8.560000000000000000e+02 4.850711011823275243e+00
8.570000000000000000e+02 3.099428198506551269e+00
8.580000000000000000e+02 2.385829858150144922e+00
8.590000000000000000e+02 2.933752634515655711e+00
8.600000000000000000e+02 2.975127364239792183e+00
8.610000000000000000e+02 2.915386116134379257e+00
8.620000000000000000e+02 3.322451301182325345e+00
8.630000000000000000e+02 3.471662444513582635e+00
8.640000000000000000e+02 3.836188970136868548e+00
8.650000000000000000e+02 4.781737352831347820e+00
8.660000000000000000e+02 5.937382987557008107e+00
8.670000000000000000e+02 6.742119163658993664e+00
8.680000000000000000e+02 7.231932555785974159e+00
8.690000000000000000e+02 7.996808214893172284e+00
8.700000000000000000e+02 9.345633064924273370e+00
8.710000000000000000e+02 1.065929780588965592e+01
8.720000000000000000e+02 1.207247355942749500e+01
8.730000000000000000e+02 1.348770699647373839e+01
8.740000000000000000e+02 1.478977047490666585e+01
8.750000000000000000e+02 1.516566078199543810e+01
8.760000000000000000e+02 1.512199698195394859e+01
8.770000000000000000e+02 1.549885581501451171e+01
8.780000000000000000e+02 1.584253019912881300e+01
8.790000000000000000e+02 1.472157387471482082e+01
8.800000000000000000e+02 1.335147975108898954e+01
8.810000000000000000e+02 1.105737324206596917e+01
8.820000000000000000e+02 8.553014438083396342e+00
8.830000000000000000e+02 6.647183493673528787e+00
8.840000000000000000e+02 5.344494313835282284e+00
8.850000000000000000e+02 4.456650210952076918e+00
8.860000000000000000e+02 4.092715642812702725e+00
8.870000000000000000e+02 3.546195186475847638e+00
8.880000000000000000e+02 3.279322506741345400e+00
8.890000000000000000e+02 3.236067201617921718e+00
8.900000000000000000e+02 3.093316762912266427e+00
8.910000000000000000e+02 3.012687819124661992e+00
8.920000000000000000e+02 2.959991494918071009e+00
8.930000000000000000e+02 2.738790046048537263e+00
8.940000000000000000e+02 2.776730318125256058e+00
8.950000000000000000e+02 2.833966274424394527e+00
8.960000000000000000e+02 2.528587728479570806e+00
8.970000000000000000e+02 2.529711956242222559e+00
8.980000000000000000e+02 2.846040031113881597e+00
8.990000000000000000e+02 3.012875879278157143e+00
9.000000000000000000e+02 2.861768572376613751e+00
9.010000000000000000e+02 2.707944361750669771e+00
9.020000000000000000e+02 2.597234937357390638e+00
9.030000000000000000e+02 2.402492345914558403e+00
9.040000000000000000e+02 3.180330438083342148e+00
9.050000000000000000e+02 3.354188196432286606e+00
9.060000000000000000e+02 2.996477785151402173e+00
9.070000000000000000e+02 2.631258305953133814e+00
9.080000000000000000e+02 2.498721517734887598e+00
9.090000000000000000e+02 2.969353515868074389e+00
9.100000000000000000e+02 3.131041617091885332e+00
9.110000000000000000e+02 3.406441363824933788e+00
9.120000000000000000e+02 2.902844144990661235e+00
9.130000000000000000e+02 2.722287940273737217e+00
9.140000000000000000e+02 2.864543961418794193e+00
9.150000000000000000e+02 2.976317791951883507e+00
9.160000000000000000e+02 2.924170036299534203e+00
9.170000000000000000e+02 2.510839208255549071e+00
9.180000000000000000e+02 3.195537891723746693e+00
9.190000000000000000e+02 3.452523768512753222e+00
9.200000000000000000e+02 3.362340640116156187e+00
9.210000000000000000e+02 3.710031335130634655e+00
9.220000000000000000e+02 3.830933655465678100e+00
9.230000000000000000e+02 3.461974304293722771e+00
9.240000000000000000e+02 3.336964571961836601e+00
9.250000000000000000e+02 3.570993123625803012e+00
9.260000000000000000e+02 3.064139619788425417e+00
9.270000000000000000e+02 3.220746554126921790e+00
9.280000000000000000e+02 3.220963846297446143e+00
9.290000000000000000e+02 3.316154099149559720e+00
9.300000000000000000e+02 3.613666349647434384e+00
9.310000000000000000e+02 3.647632991080678622e+00
9.320000000000000000e+02 3.459730774113252583e+00
9.330000000000000000e+02 3.621527206553293077e+00
9.340000000000000000e+02 3.215160002074295864e+00
9.350000000000000000e+02 3.734705321095160180e+00
9.360000000000000000e+02 4.076531431860665577e+00
9.370000000000000000e+02 3.709528946484138778e+00
9.380000000000000000e+02 3.748590843808295325e+00
9.390000000000000000e+02 3.644902542211154284e+00
9.400000000000000000e+02 4.343621431445754411e+00
9.410000000000000000e+02 4.223868336029870107e+00
9.420000000000000000e+02 4.931181749222161237e+00
9.430000000000000000e+02 4.131339427504664208e+00
9.440000000000000000e+02 4.241618771416722389e+00
9.450000000000000000e+02 4.444890090437676022e+00
9.460000000000000000e+02 4.424853205351582552e+00
9.470000000000000000e+02 4.215585615512226880e+00
9.480000000000000000e+02 4.022927725575606850e+00
9.490000000000000000e+02 4.034441270483298148e+00
9.500000000000000000e+02 4.047290934881809576e+00
9.510000000000000000e+02 4.652296173615420471e+00
9.520000000000000000e+02 4.564741799419222090e+00
9.530000000000000000e+02 4.078885376814580965e+00
9.540000000000000000e+02 3.555066614602784725e+00
9.550000000000000000e+02 3.414051322962038171e+00
9.560000000000000000e+02 3.688287690170054756e+00
9.570000000000000000e+02 3.684423749844428553e+00
9.580000000000000000e+02 3.319113108483714658e+00
9.590000000000000000e+02 3.308457986105351800e+00
9.600000000000000000e+02 3.260544160547601766e+00
9.610000000000000000e+02 2.886874031736142321e+00
9.620000000000000000e+02 3.042874451980931205e+00
9.630000000000000000e+02 2.894551814146474111e+00
9.640000000000000000e+02 2.304736726405311131e+00
9.650000000000000000e+02 2.360018607965157944e+00
9.660000000000000000e+02 2.530014355320470365e+00
9.670000000000000000e+02 2.585255964530184247e+00
9.680000000000000000e+02 1.955949462559644525e+00
9.690000000000000000e+02 2.044769218419418166e+00
9.700000000000000000e+02 2.323239435594276703e+00
9.710000000000000000e+02 1.880168000414847329e+00
9.720000000000000000e+02 1.626817001451990263e+00
9.730000000000000000e+02 2.001341154947109402e+00
9.740000000000000000e+02 1.723909294898389177e+00
9.750000000000000000e+02 1.782624132545082007e+00
9.760000000000000000e+02 8.676397075295559924e-01
9.770000000000000000e+02 1.310016486934893587e+00
9.780000000000000000e+02 1.249487666251797302e+00
9.790000000000000000e+02 8.572648226508964298e-01
9.800000000000000000e+02 7.549230443799272994e-01
9.810000000000000000e+02 8.556125036299488951e-01
9.820000000000000000e+02 8.091934235635830364e-01
9.830000000000000000e+02 3.645726835337934069e-01
9.840000000000000000e+02 1.937049247044181077e-01
9.850000000000000000e+02 4.802535187326285870e-02
9.860000000000000000e+02 4.590111036914260034e-01
9.870000000000000000e+02 1.557217158265765122e-01
9.880000000000000000e+02 7.107053734785161170e-02
9.890000000000000000e+02 1.371442538892450047e-01
9.900000000000000000e+02 4.318038211989232988e-01
9.910000000000000000e+02 5.468406706077587609e-01
9.920000000000000000e+02 8.060049498029578929e-01
9.930000000000000000e+02 1.462325805849418181e+00
9.940000000000000000e+02 1.933411517734910268e+00
9.950000000000000000e+02 1.133972132130240063e+00
9.960000000000000000e+02 1.146408991495548202e+00
9.970000000000000000e+02 1.446663911636589805e+00
9.980000000000000000e+02 1.107803007467332623e+00
9.990000000000000000e+02 8.314957944409878676e-01
1.000000000000000000e+03 9.728417815805847635e-01
1.001000000000000000e+03 9.266698008298946965e-01
1.002000000000000000e+03 1.349491199170132605e+00
1.003000000000000000e+03 1.595765585062238312e+00
1.004000000000000000e+03 1.586442829875511995e+00
1.005000000000000000e+03 1.162505485477191902e+00
1.006000000000000000e+03 9.096924927536234051e-01
1.007000000000000000e+03 4.218699315352561485e-01
1.008000000000000000e+03 3.717686680497909180e-01
1.009000000000000000e+03 1.358383807053947123e+00
1.010000000000000000e+03 5.142223229813596141e-01
1.011000000000000000e+03 9.326614854772058427e-01
1.012000000000000000e+03 4.457775809128682876e-01
1.013000000000000000e+03 8.764759751037831670e-01
1.014000000000000000e+03 4.964410000000000212e-01
1.015000000000000000e+03 4.786587551866416934e-02
1.016000000000000000e+03 8.256697388175336660e-02
1.017000000000000000e+03 3.774732842323684223e-01
1.018000000000000000e+03 4.257533975155363692e-01
1.019000000000000000e+03 1.155242340248965105e+00
1.020000000000000000e+03 1.126202141078841423e+00
1.021000000000000000e+03 1.718821904564326264e+00
1.022000000000000000e+03 1.980499668049792827e+00
1.023000000000000000e+03 1.915890006224066466e+00
1.024000000000000000e+03 3.654657892116154994e+00
1.025000000000000000e+03 5.167053103734431829e+00
1.026000000000000000e+03 4.296406821576815638e+00
1.027000000000000000e+03 4.463688419087126213e+00
1.028000000000000000e+03 5.189629800829926864e+00
1.029000000000000000e+03 6.813609829875574952e+00
1.030000000000000000e+03 7.230938705394180488e+00
1.031000000000000000e+03 7.393238045643157008e+00
1.032000000000000000e+03 8.286370966805073124e+00
1.033000000000000000e+03 9.582313157676230375e+00
1.034000000000000000e+03 1.064759238589208046e+01
1.035000000000000000e+03 1.160210062240668094e+01
1.036000000000000000e+03 1.281849012448126679e+01
1.037000000000000000e+03 1.463021282157667180e+01
1.038000000000000000e+03 1.565180709543568405e+01
1.039000000000000000e+03 1.766092186722010382e+01
1.040000000000000000e+03 1.966615468879652084e+01
1.041000000000000000e+03 2.145034390041489658e+01
1.042000000000000000e+03 2.315742690871375942e+01
1.043000000000000000e+03 2.528657194616994630e+01
1.044000000000000000e+03 2.780477190871359028e+01
1.045000000000000000e+03 3.010680580912866944e+01
1.046000000000000000e+03 3.273305622406657278e+01
1.047000000000000000e+03 3.513695987577618496e+01
1.048000000000000000e+03 3.795878551867217254e+01
1.049000000000000000e+03 4.186291130705415497e+01
1.050000000000000000e+03 4.494530695020736033e+01
1.051000000000000000e+03 4.881273068322963127e+01
1.052000000000000000e+03 5.317052842323663242e+01
1.053000000000000000e+03 5.746120526970995712e+01
1.054000000000000000e+03 6.247843053941868874e+01
1.055000000000000000e+03 6.809689960662515773e+01
1.056000000000000000e+03 7.443932860995897727e+01
1.057000000000000000e+03 8.196472970954273762e+01
1.058000000000000000e+03 9.070139923236477841e+01
1.059000000000000000e+03 1.003823572199172247e+02
1.060000000000000000e+03 1.116568290456432919e+02
1.061000000000000000e+03 1.229782705394184177e+02
1.062000000000000000e+03 1.358640402489626240e+02
1.063000000000000000e+03 1.520661506224076334e+02
1.064000000000000000e+03 1.692551163900400297e+02
1.065000000000000000e+03 1.872547226141074077e+02
1.066000000000000000e+03 2.083694240663908488e+02
1.067000000000000000e+03 2.334101024896290824e+02
1.068000000000000000e+03 2.628548298755171686e+02
1.069000000000000000e+03 2.960628701244818330e+02
1.070000000000000000e+03 3.361371746887999166e+02
1.071000000000000000e+03 3.796969410788340156e+02
1.072000000000000000e+03 4.282611623188391263e+02
1.073000000000000000e+03 4.859089064315383553e+02
1.074000000000000000e+03 5.500619668049798747e+02
1.075000000000000000e+03 6.243789043568418720e+02
1.076000000000000000e+03 7.148622863354055426e+02
1.077000000000000000e+03 8.208718605809229985e+02
1.078000000000000000e+03 9.470508531120226507e+02
1.079000000000000000e+03 1.096759443983399706e+03
1.080000000000000000e+03 1.276786695652185927e+03
1.081000000000000000e+03 1.484265226141058747e+03
1.082000000000000000e+03 1.718303529045632786e+03
1.083000000000000000e+03 1.981158562240669653e+03
1.084000000000000000e+03 2.273897975155291988e+03
1.085000000000000000e+03 2.590021336099563996e+03
1.086000000000000000e+03 2.926371410788380672e+03
1.087000000000000000e+03 3.283703755186743365e+03
1.088000000000000000e+03 3.661087679089033827e+03
1.089000000000000000e+03 4.037513834024886819e+03
1.090000000000000000e+03 4.395271367219928834e+03
1.091000000000000000e+03 4.702011562240690182e+03
1.092000000000000000e+03 4.913211320910963877e+03
1.093000000000000000e+03 4.997702336099585409e+03
1.094000000000000000e+03 4.937774311203311299e+03
1.095000000000000000e+03 4.718158253112063903e+03
1.096000000000000000e+03 4.369211697722579629e+03
1.097000000000000000e+03 3.957760004149356064e+03
1.098000000000000000e+03 3.518452836099559590e+03
1.099000000000000000e+03 3.080581522821600629e+03
1.100000000000000000e+03 2.676662682572612994e+03
1.101000000000000000e+03 2.308167726141047297e+03
1.102000000000000000e+03 1.971440468879693071e+03
1.103000000000000000e+03 1.674681655601664943e+03
1.104000000000000000e+03 1.413111331950197155e+03
1.105000000000000000e+03 1.187072819502084258e+03
1.106000000000000000e+03 9.998398780083060728e+02
1.107000000000000000e+03 8.377329018672170378e+02
1.108000000000000000e+03 7.038941192945959529e+02
1.109000000000000000e+03 5.922250265560229536e+02
1.110000000000000000e+03 5.005728481327803934e+02
1.111000000000000000e+03 4.251647008298717196e+02
1.112000000000000000e+03 3.617430485477146931e+02
1.113000000000000000e+03 3.083924095238115228e+02
1.114000000000000000e+03 2.631537410788367310e+02
1.115000000000000000e+03 2.246782856846440097e+02
1.116000000000000000e+03 1.932267553941929066e+02
1.117000000000000000e+03 1.679189198757763393e+02
1.118000000000000000e+03 1.458531008298740232e+02
1.119000000000000000e+03 1.263937838174282433e+02
1.120000000000000000e+03 1.104958228215772635e+02
1.121000000000000000e+03 9.563535374741128692e+01
1.122000000000000000e+03 8.377149477178328141e+01
1.123000000000000000e+03 7.430732458506281546e+01
1.124000000000000000e+03 6.494134304979250771e+01
1.125000000000000000e+03 5.737246304347768699e+01
1.126000000000000000e+03 4.969813149377642247e+01
1.127000000000000000e+03 4.450498178423244866e+01
1.128000000000000000e+03 4.017260481327782173e+01
1.129000000000000000e+03 3.457249550724641551e+01
1.130000000000000000e+03 3.031612607883832311e+01
1.131000000000000000e+03 2.690362248962649616e+01
1.132000000000000000e+03 2.385606993775910922e+01
1.133000000000000000e+03 2.098205105809154247e+01
1.134000000000000000e+03 1.811251203319503489e+01
1.135000000000000000e+03 1.567111946058079575e+01
1.136000000000000000e+03 1.411257506224083969e+01
1.137000000000000000e+03 1.257416962655608828e+01
1.138000000000000000e+03 1.118878182572609425e+01
1.139000000000000000e+03 9.750589973029002877e+00
1.140000000000000000e+03 8.490233022821673359e+00
1.141000000000000000e+03 7.046906041493795847e+00
1.142000000000000000e+03 5.482100489626454021e+00
1.143000000000000000e+03 4.846200925311193508e+00
1.144000000000000000e+03 4.525697954356870056e+00
1.145000000000000000e+03 3.461207962655567627e+00
1.146000000000000000e+03 2.610417466804990205e+00
1.147000000000000000e+03 2.408282431535306856e+00
1.148000000000000000e+03 9.808556659751017648e-01
1.149000000000000000e+03 8.699164294605687964e-01
1.150000000000000000e+03 5.718172863071129264e-01
1.151000000000000000e+03 2.060734107883700206e-01
1.152000000000000000e+03 4.597942863070547670e-01
1.153000000000000000e+03 4.746959087136935485e-01
1.154000000000000000e+03 4.856580807453386717e-01
1.155000000000000000e+03 8.335010726141187654e-01
1.156000000000000000e+03 1.432394363070582655e+00
1.157000000000000000e+03 1.717354956431532909e+00
1.158000000000000000e+03 1.558779014492757575e+00
1.159000000000000000e+03 1.395900717842333494e+00
1.160000000000000000e+03 1.760175307053930105e+00
1.161000000000000000e+03 7.508720788382221567e-01
1.162000000000000000e+03 9.437285892116223929e-01
1.163000000000000000e+03 1.606461450207487207e+00
1.164000000000000000e+03 1.569598761410807786e+00
1.165000000000000000e+03 1.501931244813277111e+00
1.166000000000000000e+03 1.403748643153514664e+00
1.167000000000000000e+03 1.271386614107877344e+00
1.168000000000000000e+03 1.339832921161823398e+00
1.169000000000000000e+03 1.099008497925292760e+00
1.170000000000000000e+03 4.117275269709194663e-01
1.171000000000000000e+03 3.031078215767585293e-01
1.172000000000000000e+03 4.442617406639003952e-01
1.173000000000000000e+03 1.795916161825573398e-01
1.174000000000000000e+03 5.885727136929063130e-01
1.175000000000000000e+03 5.396443609958564425e-01
1.176000000000000000e+03 3.278627551867200340e-01
1.177000000000000000e+03 3.953478589211669170e-01
1.178000000000000000e+03 1.716273941908737777e-01
1.179000000000000000e+03 4.246880477178467395e-01
1.180000000000000000e+03 6.866989834025077899e-01
1.181000000000000000e+03 9.071920643153368324e-01
1.182000000000000000e+03 1.295721748962628261e+00
1.183000000000000000e+03 1.933554070539415415e+00
1.184000000000000000e+03 1.112074058091306217e+00
1.185000000000000000e+03 6.729055435684780928e-01
1.186000000000000000e+03 5.135074937759336322e-01
1.187000000000000000e+03 1.320901302904664121e+00
1.188000000000000000e+03 1.982422883817395398e+00
1.189000000000000000e+03 2.124763047717841857e+00
1.190000000000000000e+03 2.276992228215781733e+00
1.191000000000000000e+03 2.553204215767618024e+00
1.192000000000000000e+03 2.607559713692955139e+00
1.193000000000000000e+03 2.412066224066386599e+00
1.194000000000000000e+03 2.454346257261442954e+00
1.195000000000000000e+03 3.034899600414016962e+00
1.196000000000000000e+03 3.784170000000000034e+00
1.197000000000000000e+03 3.681459757261402288e+00
1.198000000000000000e+03 3.754336639004145493e+00
1.199000000000000000e+03 3.354331714285720967e+00
1.200000000000000000e+03 7.039703535269907775e+00
1.201000000000000000e+03 5.953558273858359229e+00
1.202000000000000000e+03 6.614465178422964442e+00
1.203000000000000000e+03 8.175946623188432127e+00
1.204000000000000000e+03 5.596419334024816727e+00
1.205000000000000000e+03 4.677007587137008926e+00
1.206000000000000000e+03 4.366127288381717264e+00
1.207000000000000000e+03 5.120884103734442583e+00
1.208000000000000000e+03 4.985961655601656162e+00
1.209000000000000000e+03 4.960216456431528975e+00
1.210000000000000000e+03 5.181541692946058930e+00
1.211000000000000000e+03 5.117992311203314770e+00
1.212000000000000000e+03 5.562546213692893815e+00
1.213000000000000000e+03 6.027431105809123224e+00
1.214000000000000000e+03 5.925531342323633766e+00
1.215000000000000000e+03 6.063060738589260090e+00
1.216000000000000000e+03 6.142416074688808791e+00
1.217000000000000000e+03 5.703579232365143525e+00
1.218000000000000000e+03 5.684035427385908612e+00
1.219000000000000000e+03 5.689458887966853951e+00
1.220000000000000000e+03 5.708101871369292368e+00
1.221000000000000000e+03 7.743040145228201609e+00
1.222000000000000000e+03 5.942776412863032931e+00
1.223000000000000000e+03 5.272201952282176585e+00
1.224000000000000000e+03 4.543121298755171900e+00
1.225000000000000000e+03 7.307107618257628445e+00
1.226000000000000000e+03 6.799394809128873618e+00
1.227000000000000000e+03 4.100618261410810206e+00
1.228000000000000000e+03 4.196300248447309755e+00
1.229000000000000000e+03 4.912919186722022324e+00
1.230000000000000000e+03 4.211607904564305116e+00
1.231000000000000000e+03 4.635599665975124850e+00
1.232000000000000000e+03 5.002955666666637491e+00
1.233000000000000000e+03 4.419835020746901932e+00
1.234000000000000000e+03 4.231889402489624530e+00
1.235000000000000000e+03 3.960949933609957174e+00
1.236000000000000000e+03 4.175265904761907620e+00
1.237000000000000000e+03 3.821834047717851846e+00
1.238000000000000000e+03 3.476056053941900092e+00
1.239000000000000000e+03 3.315829948132767324e+00
1.240000000000000000e+03 3.512417341614888944e+00
1.241000000000000000e+03 3.477344697095428483e+00
1.242000000000000000e+03 3.107323668049767562e+00
1.243000000000000000e+03 3.175697863070516380e+00
1.244000000000000000e+03 3.462497459627334351e+00
1.245000000000000000e+03 3.209169732365125149e+00
1.246000000000000000e+03 2.912821962655593122e+00
1.247000000000000000e+03 2.775330190871381664e+00
1.248000000000000000e+03 2.500934898340247958e+00
1.249000000000000000e+03 2.587012742738608040e+00
1.250000000000000000e+03 2.715392124481327496e+00
1.251000000000000000e+03 2.497426182572617392e+00
1.252000000000000000e+03 2.258836327800819888e+00
1.253000000000000000e+03 2.150191219917013896e+00
1.254000000000000000e+03 2.187677699170122114e+00
1.255000000000000000e+03 2.381050863070547585e+00
1.256000000000000000e+03 2.489104624481326855e+00
1.257000000000000000e+03 2.533424904564301361e+00
1.258000000000000000e+03 2.507043771784227992e+00
1.259000000000000000e+03 1.906794941908735774e+00
1.260000000000000000e+03 2.111729970954383973e+00
1.261000000000000000e+03 1.841930304347820790e+00
1.262000000000000000e+03 1.961730215767616636e+00
1.263000000000000000e+03 1.036235964730292558e+00
1.264000000000000000e+03 1.559046695020708473e+00
1.265000000000000000e+03 1.145563333333323275e+00
1.266000000000000000e+03 8.298338755186759341e-01
1.267000000000000000e+03 1.211245771784180469e+00
1.268000000000000000e+03 1.234567639004158002e+00
1.269000000000000000e+03 1.372973225672903252e+00
1.270000000000000000e+03 1.389781543568511246e+00
1.271000000000000000e+03 1.234457977178385679e+00
1.272000000000000000e+03 1.503514091286297427e+00
1.273000000000000000e+03 8.788990538302275946e-01
1.274000000000000000e+03 9.557682489626537770e-01
1.275000000000000000e+03 1.088350775933605297e+00
1.276000000000000000e+03 1.477269863070536760e+00
1.277000000000000000e+03 1.145029664596271868e+00
1.278000000000000000e+03 1.236692035269707723e+00
1.279000000000000000e+03 5.619856929460389505e-01
1.280000000000000000e+03 6.229352116182983456e-01
1.281000000000000000e+03 1.020961285714266253e+00
1.282000000000000000e+03 8.173093112033176233e-01
1.283000000000000000e+03 1.603709875518153360e-01
1.284000000000000000e+03 2.813666514522041306e-01
1.285000000000000000e+03 7.577836887966831192e-01
1.286000000000000000e+03 6.696743506224018816e-01
1.287000000000000000e+03 5.417033589211555089e-01
1.288000000000000000e+03 3.548132136929642022e-01
1.289000000000000000e+03 2.458036244813263660e-01
1.290000000000000000e+03 5.977085643153714489e-01
1.291000000000000000e+03 6.115961327801001657e-01
1.292000000000000000e+03 3.555064107883831870e-01
1.293000000000000000e+03 6.665240082987655690e-01
1.294000000000000000e+03 3.756571846473302778e-01
1.295000000000000000e+03 1.378649170124541246e-01
1.296000000000000000e+03 2.365048921161845563e-01
1.297000000000000000e+03 2.269494543568396083e-01
1.298000000000000000e+03 1.388757669709393336e-02
1.299000000000000000e+03 4.432671203319395459e-01
1.300000000000000000e+03 7.091457344398013340e-01
1.301000000000000000e+03 1.435138263070401266e-01
1.302000000000000000e+03 3.970660328365034804e-03
1.303000000000000000e+03 0.000000000000000000e+00
1.304000000000000000e+03 0.000000000000000000e+00
1.305000000000000000e+03 0.000000000000000000e+00
1.306000000000000000e+03 0.000000000000000000e+00
1.307000000000000000e+03 0.000000000000000000e+00
1.308000000000000000e+03 0.000000000000000000e+00
1.309000000000000000e+03 0.000000000000000000e+00
1.310000000000000000e+03 0.000000000000000000e+00
1.311000000000000000e+03 0.000000000000000000e+00
1.312000000000000000e+03 0.000000000000000000e+00
1.313000000000000000e+03 0.000000000000000000e+00
1.314000000000000000e+03 0.000000000000000000e+00
1.315000000000000000e+03 0.000000000000000000e+00
1.316000000000000000e+03 0.000000000000000000e+00
1.317000000000000000e+03 0.000000000000000000e+00
1.318000000000000000e+03 0.000000000000000000e+00
1.319000000000000000e+03 0.000000000000000000e+00
1.320000000000000000e+03 0.000000000000000000e+00
1.321000000000000000e+03 0.000000000000000000e+00
1.322000000000000000e+03 0.000000000000000000e+00
1.323000000000000000e+03 0.000000000000000000e+00
1.324000000000000000e+03 0.000000000000000000e+00
1.325000000000000000e+03 0.000000000000000000e+00
1.326000000000000000e+03 0.000000000000000000e+00
1.327000000000000000e+03 0.000000000000000000e+00
1.328000000000000000e+03 0.000000000000000000e+00
1.329000000000000000e+03 0.000000000000000000e+00
1.330000000000000000e+03 0.000000000000000000e+00
1.331000000000000000e+03 0.000000000000000000e+00
1.332000000000000000e+03 0.000000000000000000e+00
1.333000000000000000e+03 0.000000000000000000e+00
1.334000000000000000e+03 0.000000000000000000e+00
1.335000000000000000e+03 0.000000000000000000e+00
1.336000000000000000e+03 0.000000000000000000e+00
1.337000000000000000e+03 0.000000000000000000e+00
1.338000000000000000e+03 0.000000000000000000e+00
1.339000000000000000e+03 0.000000000000000000e+00
1.340000000000000000e+03 0.000000000000000000e+00
1.341000000000000000e+03 0.000000000000000000e+00
1.342000000000000000e+03 0.000000000000000000e+00
1.343000000000000000e+03 0.000000000000000000e+00
1.344000000000000000e+03 0.000000000000000000e+00
1.345000000000000000e+03 0.000000000000000000e+00
1.346000000000000000e+03 0.000000000000000000e+00
1.347000000000000000e+03 0.000000000000000000e+00
1.348000000000000000e+03 0.000000000000000000e+00
1.349000000000000000e+03 0.000000000000000000e+00
1.350000000000000000e+03 0.000000000000000000e+00
1.351000000000000000e+03 0.000000000000000000e+00
1.352000000000000000e+03 0.000000000000000000e+00
1.353000000000000000e+03 0.000000000000000000e+00
1.354000000000000000e+03 0.000000000000000000e+00
1.355000000000000000e+03 0.000000000000000000e+00
1.356000000000000000e+03 0.000000000000000000e+00
1.357000000000000000e+03 0.000000000000000000e+00
1.358000000000000000e+03 0.000000000000000000e+00
1.359000000000000000e+03 0.000000000000000000e+00
1.360000000000000000e+03 0.000000000000000000e+00
1.361000000000000000e+03 0.000000000000000000e+00
1.362000000000000000e+03 0.000000000000000000e+00
1.363000000000000000e+03 0.000000000000000000e+00
1.364000000000000000e+03 0.000000000000000000e+00
1.365000000000000000e+03 0.000000000000000000e+00
1.366000000000000000e+03 0.000000000000000000e+00
1.367000000000000000e+03 0.000000000000000000e+00
1.368000000000000000e+03 0.000000000000000000e+00
1.369000000000000000e+03 0.000000000000000000e+00
1.370000000000000000e+03 0.000000000000000000e+00
1.371000000000000000e+03 0.000000000000000000e+00
1.372000000000000000e+03 0.000000000000000000e+00
1.373000000000000000e+03 0.000000000000000000e+00
1.374000000000000000e+03 0.000000000000000000e+00
1.375000000000000000e+03 0.000000000000000000e+00
1.376000000000000000e+03 0.000000000000000000e+00
1.377000000000000000e+03 0.000000000000000000e+00
1.378000000000000000e+03 0.000000000000000000e+00
1.379000000000000000e+03 0.000000000000000000e+00
1.380000000000000000e+03 0.000000000000000000e+00
1.381000000000000000e+03 0.000000000000000000e+00
1.382000000000000000e+03 0.000000000000000000e+00
1.383000000000000000e+03 0.000000000000000000e+00
1.384000000000000000e+03 0.000000000000000000e+00
1.385000000000000000e+03 0.000000000000000000e+00
1.386000000000000000e+03 0.000000000000000000e+00
1.387000000000000000e+03 0.000000000000000000e+00
1.388000000000000000e+03 0.000000000000000000e+00
1.389000000000000000e+03 0.000000000000000000e+00
1.390000000000000000e+03 0.000000000000000000e+00
1.391000000000000000e+03 0.000000000000000000e+00
1.392000000000000000e+03 0.000000000000000000e+00
1.393000000000000000e+03 0.000000000000000000e+00
1.394000000000000000e+03 0.000000000000000000e+00
1.395000000000000000e+03 0.000000000000000000e+00
1.396000000000000000e+03 0.000000000000000000e+00
1.397000000000000000e+03 0.000000000000000000e+00
1.398000000000000000e+03 0.000000000000000000e+00
1.399000000000000000e+03 0.000000000000000000e+00
1.400000000000000000e+03 0.000000000000000000e+00
1.401000000000000000e+03 0.000000000000000000e+00
1.402000000000000000e+03 0.000000000000000000e+00
1.403000000000000000e+03 0.000000000000000000e+00
1.404000000000000000e+03 0.000000000000000000e+00
1.405000000000000000e+03 0.000000000000000000e+00
1.406000000000000000e+03 0.000000000000000000e+00
1.407000000000000000e+03 0.000000000000000000e+00
1.408000000000000000e+03 0.000000000000000000e+00
1.409000000000000000e+03 0.000000000000000000e+00
1.410000000000000000e+03 0.000000000000000000e+00
1.411000000000000000e+03 0.000000000000000000e+00
1.412000000000000000e+03 0.000000000000000000e+00
1.413000000000000000e+03 0.000000000000000000e+00
1.414000000000000000e+03 0.000000000000000000e+00
1.415000000000000000e+03 0.000000000000000000e+00
1.416000000000000000e+03 0.000000000000000000e+00
1.417000000000000000e+03 0.000000000000000000e+00
1.418000000000000000e+03 0.000000000000000000e+00
1.419000000000000000e+03 0.000000000000000000e+00
1.420000000000000000e+03 0.000000000000000000e+00
1.421000000000000000e+03 0.000000000000000000e+00
1.422000000000000000e+03 0.000000000000000000e+00
1.423000000000000000e+03 0.000000000000000000e+00
1.424000000000000000e+03 0.000000000000000000e+00
1.425000000000000000e+03 0.000000000000000000e+00
1.426000000000000000e+03 0.000000000000000000e+00
1.427000000000000000e+03 0.000000000000000000e+00
1.428000000000000000e+03 0.000000000000000000e+00
1.429000000000000000e+03 0.000000000000000000e+00
1.430000000000000000e+03 0.000000000000000000e+00
1.431000000000000000e+03 0.000000000000000000e+00
1.432000000000000000e+03 0.000000000000000000e+00
1.433000000000000000e+03 0.000000000000000000e+00
1.434000000000000000e+03 0.000000000000000000e+00
1.435000000000000000e+03 0.000000000000000000e+00
1.436000000000000000e+03 0.000000000000000000e+00
1.437000000000000000e+03 0.000000000000000000e+00
1.438000000000000000e+03 0.000000000000000000e+00
1.439000000000000000e+03 0.000000000000000000e+00
1.440000000000000000e+03 0.000000000000000000e+00
1.441000000000000000e+03 0.000000000000000000e+00
1.442000000000000000e+03 0.000000000000000000e+00
1.443000000000000000e+03 0.000000000000000000e+00
1.444000000000000000e+03 0.000000000000000000e+00
1.445000000000000000e+03 0.000000000000000000e+00
1.446000000000000000e+03 0.000000000000000000e+00
1.447000000000000000e+03 0.000000000000000000e+00
1.448000000000000000e+03 0.000000000000000000e+00
1.449000000000000000e+03 0.000000000000000000e+00
1.450000000000000000e+03 0.000000000000000000e+00
1.451000000000000000e+03 0.000000000000000000e+00
1.452000000000000000e+03 0.000000000000000000e+00
1.453000000000000000e+03 0.000000000000000000e+00
1.454000000000000000e+03 0.000000000000000000e+00
1.455000000000000000e+03 0.000000000000000000e+00
1.456000000000000000e+03 0.000000000000000000e+00
1.457000000000000000e+03 0.000000000000000000e+00
1.458000000000000000e+03 0.000000000000000000e+00
1.459000000000000000e+03 0.000000000000000000e+00
1.460000000000000000e+03 0.000000000000000000e+00
1.461000000000000000e+03 0.000000000000000000e+00
1.462000000000000000e+03 0.000000000000000000e+00
1.463000000000000000e+03 0.000000000000000000e+00
1.464000000000000000e+03 0.000000000000000000e+00
1.465000000000000000e+03 0.000000000000000000e+00
1.466000000000000000e+03 0.000000000000000000e+00
1.467000000000000000e+03 0.000000000000000000e+00
1.468000000000000000e+03 0.000000000000000000e+00
1.469000000000000000e+03 0.000000000000000000e+00
1.470000000000000000e+03 0.000000000000000000e+00
1.471000000000000000e+03 0.000000000000000000e+00
1.472000000000000000e+03 0.000000000000000000e+00
1.473000000000000000e+03 0.000000000000000000e+00
1.474000000000000000e+03 0.000000000000000000e+00
1.475000000000000000e+03 0.000000000000000000e+00
1.476000000000000000e+03 0.000000000000000000e+00
1.477000000000000000e+03 0.000000000000000000e+00
1.478000000000000000e+03 0.000000000000000000e+00
1.479000000000000000e+03 0.000000000000000000e+00
1.480000000000000000e+03 0.000000000000000000e+00
1.481000000000000000e+03 0.000000000000000000e+00
1.482000000000000000e+03 0.000000000000000000e+00
1.483000000000000000e+03 0.000000000000000000e+00
1.484000000000000000e+03 0.000000000000000000e+00
1.485000000000000000e+03 0.000000000000000000e+00
1.486000000000000000e+03 0.000000000000000000e+00
1.487000000000000000e+03 0.000000000000000000e+00
1.488000000000000000e+03 0.000000000000000000e+00
1.489000000000000000e+03 0.000000000000000000e+00
1.490000000000000000e+03 0.000000000000000000e+00
1.491000000000000000e+03 0.000000000000000000e+00
1.492000000000000000e+03 0.000000000000000000e+00
1.493000000000000000e+03 0.000000000000000000e+00
1.494000000000000000e+03 0.000000000000000000e+00
1.495000000000000000e+03 0.000000000000000000e+00
1.496000000000000000e+03 0.000000000000000000e+00
1.497000000000000000e+03 0.000000000000000000e+00
1.498000000000000000e+03 0.000000000000000000e+00
1.499000000000000000e+03 0.000000000000000000e+00
1.500000000000000000e+03 0.000000000000000000e+00
