1.010000000000000000e+02 0.000000000000000000e+00
1.020000000000000000e+02 0.000000000000000000e+00
1.030000000000000000e+02 0.000000000000000000e+00
1.040000000000000000e+02 0.000000000000000000e+00
1.050000000000000000e+02 0.000000000000000000e+00
1.060000000000000000e+02 0.000000000000000000e+00
1.070000000000000000e+02 0.000000000000000000e+00
1.080000000000000000e+02 0.000000000000000000e+00
1.090000000000000000e+02 0.000000000000000000e+00
1.100000000000000000e+02 0.000000000000000000e+00
1.110000000000000000e+02 0.000000000000000000e+00
1.120000000000000000e+02 0.000000000000000000e+00
1.130000000000000000e+02 0.000000000000000000e+00
1.140000000000000000e+02 0.000000000000000000e+00
1.150000000000000000e+02 0.000000000000000000e+00
1.160000000000000000e+02 0.000000000000000000e+00
1.170000000000000000e+02 0.000000000000000000e+00
1.180000000000000000e+02 0.000000000000000000e+00
1.190000000000000000e+02 0.000000000000000000e+00
1.200000000000000000e+02 0.000000000000000000e+00
1.210000000000000000e+02 0.000000000000000000e+00
1.220000000000000000e+02 0.000000000000000000e+00
1.230000000000000000e+02 0.000000000000000000e+00
1.240000000000000000e+02 0.000000000000000000e+00
1.250000000000000000e+02 0.000000000000000000e+00
1.260000000000000000e+02 0.000000000000000000e+00
1.270000000000000000e+02 0.000000000000000000e+00
1.280000000000000000e+02 1.423394123833253699e+00
1.290000000000000000e+02 1.165581217776396450e+01
1.300000000000000000e+02 2.398784052893579144e+01
1.310000000000000000e+02 1.400157884443046896e+02
1.320000000000000000e+02 2.028452220701101112e+02
1.330000000000000000e+02 1.921813104127775773e+02
1.340000000000000000e+02 2.294350243467440293e+02
1.350000000000000000e+02 2.727449470441811172e+02
1.360000000000000000e+02 3.583192145405533893e+02
1.370000000000000000e+02 4.436611861468272764e+02
1.380000000000000000e+02 4.309284722879071978e+02
1.390000000000000000e+02 2.909562690105793763e+02
1.400000000000000000e+02 4.106878950642894779e+02
1.410000000000000000e+02 6.657303706492441506e+02
1.420000000000000000e+02 7.721219413607137767e+02
1.430000000000000000e+02 8.367803053297383258e+02
1.440000000000000000e+02 9.902144514623496434e+02
1.450000000000000000e+02 1.227478931756899783e+03
1.460000000000000000e+02 1.463169070109935774e+03
1.470000000000000000e+02 1.539544761252852140e+03
1.480000000000000000e+02 1.488865144990667204e+03
1.490000000000000000e+02 1.301155882389542512e+03
1.500000000000000000e+02 1.017394735946897640e+03
1.510000000000000000e+02 7.973320654013690501e+02
1.520000000000000000e+02 7.545772645716658644e+02
1.530000000000000000e+02 5.720534390168012351e+02
1.540000000000000000e+02 3.306874700684501818e+02
1.550000000000000000e+02 3.939832933416303149e+02
1.560000000000000000e+02 3.590114931342049545e+02
1.570000000000000000e+02 2.470983309271951214e+02
1.580000000000000000e+02 1.439425476664586085e+02
1.590000000000000000e+02 1.107477902302426145e+02
1.600000000000000000e+02 8.925890328287015052e+01
1.610000000000000000e+02 1.487322071976758480e+02
1.620000000000000000e+02 1.907853619166142778e+02
1.630000000000000000e+02 1.213215822065529039e+02
1.640000000000000000e+02 6.494937151420879218e+01
1.650000000000000000e+02 5.190009735117184420e+01
1.660000000000000000e+02 7.920381915387800120e+01
1.670000000000000000e+02 1.082049891723709010e+02
1.680000000000000000e+02 9.006959049782201987e+01
1.690000000000000000e+02 4.179339938809400934e+01
1.700000000000000000e+02 2.023718496162622316e+01
1.710000000000000000e+02 4.532133226509060364e+01
1.720000000000000000e+02 8.722262677245394968e+01
1.730000000000000000e+02 1.386988875959307776e+01
1.740000000000000000e+02 2.291042866625175023e+01
1.750000000000000000e+02 5.525180562007486174e+01
1.760000000000000000e+02 3.603819485998781857e+01
1.770000000000000000e+02 8.607140977805433124e+01
1.780000000000000000e+02 5.280142992534177182e+01
1.790000000000000000e+02 5.271562445550688381e+01
1.800000000000000000e+02 5.422151690105721400e+01
1.810000000000000000e+02 6.408397636872666681e+01
1.820000000000000000e+02 6.730285546152275344e+01
1.830000000000000000e+02 7.318518579547749425e+01
1.840000000000000000e+02 6.935621113230993728e+01
1.850000000000000000e+02 3.847965963907889630e+01
1.860000000000000000e+02 7.065561432897712280e+01
1.870000000000000000e+02 6.851544359468982748e+01
1.880000000000000000e+02 2.118274273802212093e+01
1.890000000000000000e+02 5.522330146857457578e+01
1.900000000000000000e+02 5.375872265035268782e+01
1.910000000000000000e+02 5.618416097697532052e+01
1.920000000000000000e+02 7.247739115536201382e+01
1.930000000000000000e+02 3.946437494400636581e+01
1.940000000000000000e+02 1.123894161543245573e+01
1.950000000000000000e+02 2.266265585355740342e+01
1.960000000000000000e+02 5.583995093944463406e+01
1.970000000000000000e+02 9.378467294959540368e+01
1.980000000000000000e+02 1.702549440572485651e+01
1.990000000000000000e+02 3.719461638324315089e+01
2.000000000000000000e+02 2.258574434349669602e+01
2.010000000000000000e+02 8.821577417963118251e+01
2.020000000000000000e+02 1.151486232109521524e+02
2.030000000000000000e+02 1.467780930927193310e+02
2.040000000000000000e+02 1.046075982721436191e+02
2.050000000000000000e+02 3.750690300560031432e+01
2.060000000000000000e+02 4.258931857913309926e+01
2.070000000000000000e+02 8.151960925326694962e+01
2.080000000000000000e+02 7.282959716863757649e+01
2.090000000000000000e+02 5.257409586600287099e+01
2.100000000000000000e+02 8.514460919518828064e+01
2.110000000000000000e+02 2.027634278100373706e+02
2.120000000000000000e+02 2.111969898568763995e+02
2.130000000000000000e+02 1.877667766438499939e+02
2.140000000000000000e+02 1.873891020950011352e+02
2.150000000000000000e+02 2.039923026965360862e+02
2.160000000000000000e+02 2.369225040448038726e+02
2.170000000000000000e+02 2.987885169259480449e+02
2.180000000000000000e+02 3.876591224642203315e+02
2.190000000000000000e+02 4.771331144990669486e+02
2.200000000000000000e+02 5.012123640945862917e+02
2.210000000000000000e+02 3.670644709396407848e+02
2.220000000000000000e+02 2.066480351586801874e+02
2.230000000000000000e+02 1.260865340178382752e+02
2.240000000000000000e+02 1.041572666251814780e+02
2.250000000000000000e+02 2.929116509023070591e+01
2.260000000000000000e+02 2.031812401369066823e+00
2.270000000000000000e+02 2.802961897532262547e+00
2.280000000000000000e+02 4.192129556097027887e+01
2.290000000000000000e+02 8.272419261771369747e+01
2.300000000000000000e+02 1.086195734909775865e+02
2.310000000000000000e+02 6.029227962455880885e+01
2.320000000000000000e+02 3.397114374196216602e+01
2.330000000000000000e+02 1.809222676830530219e+01
2.340000000000000000e+02 9.465154579962586467e+01
2.350000000000000000e+02 1.154937111387669404e+02
2.360000000000000000e+02 7.812302266749645696e+01
2.370000000000000000e+02 1.488839190209500885e+02
2.380000000000000000e+02 6.194467730139066930e+01
2.390000000000000000e+02 8.892917963907753176e+01
2.400000000000000000e+02 2.071942039410920984e+02
2.410000000000000000e+02 2.747339731383531785e+02
2.420000000000000000e+02 3.431467735324619071e+02
2.430000000000000000e+02 3.829193251555370239e+02
2.440000000000000000e+02 3.935726533914123593e+02
2.450000000000000000e+02 4.033645024268826660e+02
2.460000000000000000e+02 4.800382636250516839e+02
2.470000000000000000e+02 5.287307007882179732e+02
2.480000000000000000e+02 5.273440658369632956e+02
2.490000000000000000e+02 5.482879310244716180e+02
2.500000000000000000e+02 6.692816333333332750e+02
2.510000000000000000e+02 7.539822623107235131e+02
2.520000000000000000e+02 7.841836826384566166e+02
2.530000000000000000e+02 8.078788471686374351e+02
2.540000000000000000e+02 8.708163700269657284e+02
2.550000000000000000e+02 1.000433153629199182e+03
2.560000000000000000e+02 1.091427622070109010e+03
2.570000000000000000e+02 1.163436414436837367e+03
2.580000000000000000e+02 1.195822257000622130e+03
2.590000000000000000e+02 1.135518491599253366e+03
2.600000000000000000e+02 1.076494180253059994e+03
2.610000000000000000e+02 1.034854895457373686e+03
2.620000000000000000e+02 9.542396144990658513e+02
2.630000000000000000e+02 8.063123273387263907e+02
2.640000000000000000e+02 6.526074687888824428e+02
2.650000000000000000e+02 5.718541136693625049e+02
2.660000000000000000e+02 5.233229472930922839e+02
2.670000000000000000e+02 4.753944901700525634e+02
2.680000000000000000e+02 4.257256453225464270e+02
2.690000000000000000e+02 4.008567503837377899e+02
2.700000000000000000e+02 4.223474435179417128e+02
2.710000000000000000e+02 3.937030691350378788e+02
2.720000000000000000e+02 2.856776154117395663e+02
2.730000000000000000e+02 3.068590351379380081e+02
2.740000000000000000e+02 2.773051126737200889e+02
2.750000000000000000e+02 2.579014276291221677e+02
2.760000000000000000e+02 2.803966724953328367e+02
2.770000000000000000e+02 3.081995564198295483e+02
2.780000000000000000e+02 3.913935666874080539e+02
2.790000000000000000e+02 3.562776200995637623e+02
2.800000000000000000e+02 3.049202955196017228e+02
2.810000000000000000e+02 3.428241212360017585e+02
2.820000000000000000e+02 3.157179886123212214e+02
2.830000000000000000e+02 3.536883867662317016e+02
2.840000000000000000e+02 4.267835773123193803e+02
2.850000000000000000e+02 4.645285142501546147e+02
2.860000000000000000e+02 4.144831892345983420e+02
2.870000000000000000e+02 4.232323960597262840e+02
2.880000000000000000e+02 3.090672792366779618e+02
2.890000000000000000e+02 2.063732666459239624e+02
2.900000000000000000e+02 1.952381077561178415e+02
2.910000000000000000e+02 6.615647942335795051e+01
2.920000000000000000e+02 1.359492809790468186e+02
2.930000000000000000e+02 1.415084150559936518e+02
2.940000000000000000e+02 7.221051919726221513e+01
2.950000000000000000e+02 1.032024348267993759e+02
2.960000000000000000e+02 9.458403570421053530e+01
2.970000000000000000e+02 5.888177524579956668e+01
2.980000000000000000e+02 3.882098478531422359e+01
2.990000000000000000e+02 4.886730510889880463e+01
3.000000000000000000e+02 5.464830031113859121e+01
3.010000000000000000e+02 1.279413927732813683e+01
3.020000000000000000e+02 1.362115398050194592e+01
3.030000000000000000e+02 1.642254469944065676e+01
3.040000000000000000e+02 6.053327570628531618e+01
3.050000000000000000e+02 3.691635038581174655e+01
3.060000000000000000e+02 1.598069907944446300e+01
3.070000000000000000e+02 3.142521291848154164e+01
3.080000000000000000e+02 1.222306367731214749e+01
3.090000000000000000e+02 2.273031659820908157e+00
3.100000000000000000e+02 3.998454147894574362e+01
3.110000000000000000e+02 2.398885392057147570e+01
3.120000000000000000e+02 1.712849803360271750e+01
3.130000000000000000e+02 2.876818431860618475e+01
3.140000000000000000e+02 1.832574734549990936e+01
3.150000000000000000e+02 1.715648176519393431e+01
3.160000000000000000e+02 1.896031385812059256e+01
3.170000000000000000e+02 8.885182728631567883e+00
3.180000000000000000e+02 1.313880749014721161e+01
3.190000000000000000e+02 1.053863141464426834e+00
3.200000000000000000e+02 1.835219550062279126e+01
3.210000000000000000e+02 1.875587012445596713e+01
3.220000000000000000e+02 3.586463150798581268e+01
3.230000000000000000e+02 3.550660636174985996e+01
3.240000000000000000e+02 6.028862925534095041e+01
3.250000000000000000e+02 6.476413785314174731e+01
3.260000000000000000e+02 7.000354651524476424e+01
3.270000000000000000e+02 8.973432773076038416e+01
3.280000000000000000e+02 9.575311150798457049e+01
3.290000000000000000e+02 1.245335078406967284e+02
3.300000000000000000e+02 1.344666109520834425e+02
3.310000000000000000e+02 1.369634937564818529e+02
3.320000000000000000e+02 1.590098724953328997e+02
3.330000000000000000e+02 1.901861637419621616e+02
3.340000000000000000e+02 2.198220393279396490e+02
3.350000000000000000e+02 2.351616071561915078e+02
3.360000000000000000e+02 2.269467157228791052e+02
3.370000000000000000e+02 2.818944699294897873e+02
3.380000000000000000e+02 3.268198250570426922e+02
3.390000000000000000e+02 3.668061473553208884e+02
3.400000000000000000e+02 4.321734454168408774e+02
3.410000000000000000e+02 5.320998672682037522e+02
3.420000000000000000e+02 6.041051700062239433e+02
3.430000000000000000e+02 6.533234875570299209e+02
3.440000000000000000e+02 7.460405884280362443e+02
3.450000000000000000e+02 8.505363278987771309e+02
3.460000000000000000e+02 8.967379261356579718e+02
3.470000000000000000e+02 1.066218622272913080e+03
3.480000000000000000e+02 1.184363854387054744e+03
3.490000000000000000e+02 1.288822404687820836e+03
3.500000000000000000e+02 1.423067894212818146e+03
3.510000000000000000e+02 1.518615097282720626e+03
3.520000000000000000e+02 1.585605286869942347e+03
3.530000000000000000e+02 1.726879191039203761e+03
3.540000000000000000e+02 1.961237413607134386e+03
3.550000000000000000e+02 2.228727148724328799e+03
3.560000000000000000e+02 2.445474355320474842e+03
3.570000000000000000e+02 2.647817653391413387e+03
3.580000000000000000e+02 2.744956732835511502e+03
3.590000000000000000e+02 2.645082826799415216e+03
3.600000000000000000e+02 2.352339958722252504e+03
3.610000000000000000e+02 2.060017426260109460e+03
3.620000000000000000e+02 1.810816443683876514e+03
3.630000000000000000e+02 1.566775760630569039e+03
3.640000000000000000e+02 1.326525242637907240e+03
3.650000000000000000e+02 1.133301767475630868e+03
3.660000000000000000e+02 9.799422388923491098e+02
3.670000000000000000e+02 9.045892495230191344e+02
3.680000000000000000e+02 8.726904397013073549e+02
3.690000000000000000e+02 8.683426172578296018e+02
3.700000000000000000e+02 9.434659469307335939e+02
3.710000000000000000e+02 9.929676306160546346e+02
3.720000000000000000e+02 1.070590880730138224e+03
3.730000000000000000e+02 1.215154059311490300e+03
3.740000000000000000e+02 1.396724312798175561e+03
3.750000000000000000e+02 1.455980999999999995e+03
3.760000000000000000e+02 1.582716306160550857e+03
3.770000000000000000e+02 1.761294573739890666e+03
3.780000000000000000e+02 1.945885130056006346e+03
3.790000000000000000e+02 2.097942047293091491e+03
3.800000000000000000e+02 2.234545662103302675e+03
3.810000000000000000e+02 2.503531700062233540e+03
3.820000000000000000e+02 2.875665821406339546e+03
3.830000000000000000e+02 3.317768536610649790e+03
3.840000000000000000e+02 3.846834301182342188e+03
3.850000000000000000e+02 4.458496683119035879e+03
3.860000000000000000e+02 5.203163019498016183e+03
3.870000000000000000e+02 5.679820942543034107e+03
3.880000000000000000e+02 5.637275767731232918e+03
3.890000000000000000e+02 5.125894695084013620e+03
3.900000000000000000e+02 4.240113197676842901e+03
3.910000000000000000e+02 3.293786967641562569e+03
3.920000000000000000e+02 2.497802988176726558e+03
3.930000000000000000e+02 1.916519479775982518e+03
3.940000000000000000e+02 1.426522517112626247e+03
3.950000000000000000e+02 1.142644545322545127e+03
3.960000000000000000e+02 8.911062334992728893e+02
3.970000000000000000e+02 6.999868318813499855e+02
3.980000000000000000e+02 6.173260166148087364e+02
3.990000000000000000e+02 5.331388484754190813e+02
4.000000000000000000e+02 4.784197310723927785e+02
4.010000000000000000e+02 3.814968212196609443e+02
4.020000000000000000e+02 3.190908429075090567e+02
4.030000000000000000e+02 3.658300207840709959e+02
4.040000000000000000e+02 2.711096215100610607e+02
4.050000000000000000e+02 2.818774992534210924e+02
4.060000000000000000e+02 2.595192559220086537e+02
4.070000000000000000e+02 1.917438644679527613e+02
4.080000000000000000e+02 2.130358407299872283e+02
4.090000000000000000e+02 2.632013057871811270e+02
4.100000000000000000e+02 1.683247616884469835e+02
4.110000000000000000e+02 1.319394359187063515e+02
4.120000000000000000e+02 2.095830457373996865e+02
4.130000000000000000e+02 2.537267350964530692e+02
4.140000000000000000e+02 1.871601469307323669e+02
4.150000000000000000e+02 1.578782565235426318e+02
4.160000000000000000e+02 1.425122744866208109e+02
4.170000000000000000e+02 1.479060889856860115e+02
4.180000000000000000e+02 1.977210051234177115e+02
4.190000000000000000e+02 1.497517896287064616e+02
4.200000000000000000e+02 9.410963185438748724e+01
4.210000000000000000e+02 1.419076214685717616e+02
4.220000000000000000e+02 1.833552773283591932e+02
4.230000000000000000e+02 2.109911547106466045e+01
4.240000000000000000e+02 1.094358263679720835e+02
4.250000000000000000e+02 1.288377332296212217e+02
4.260000000000000000e+02 5.371862665767817901e+01
4.270000000000000000e+02 1.928642546567113536e+00
4.280000000000000000e+02 7.711705624559155581e+01
4.290000000000000000e+02 1.225758950228121478e+02
4.300000000000000000e+02 9.643258937149943222e+01
4.310000000000000000e+02 6.948925855216759828e+01
4.320000000000000000e+02 6.126632091870591523e+01
4.330000000000000000e+02 2.070099071147126324e+01
4.340000000000000000e+02 1.107193118543878114e+02
4.350000000000000000e+02 1.121783687432589147e+02
4.360000000000000000e+02 3.913107262186111512e+01
4.370000000000000000e+02 1.548848032980773581e+01
4.380000000000000000e+02 7.756277923890448278e+01
4.390000000000000000e+02 8.955370909769777654e+01
4.400000000000000000e+02 6.398862406761995203e+01
4.410000000000000000e+02 6.068642727084179000e+01
4.420000000000000000e+02 6.381872538477527712e+01
4.430000000000000000e+02 2.023616645924117208e+01
4.440000000000000000e+02 2.294500395146221550e+01
4.450000000000000000e+02 7.399084081103485744e+01
4.460000000000000000e+02 6.769479758556403226e+01
4.470000000000000000e+02 1.515765332628074447e+01
4.480000000000000000e+02 2.718847988176726460e+01
4.490000000000000000e+02 2.744403261771390135e+01
4.500000000000000000e+02 3.566791554241808626e+01
4.510000000000000000e+02 3.747070791122207822e+01
4.520000000000000000e+02 5.184178598630982293e+01
4.530000000000000000e+02 9.349632119476847691e+00
4.540000000000000000e+02 2.006489985895047568e+01
4.550000000000000000e+02 8.974313705870102353e+00
4.560000000000000000e+02 2.983717080066392313e+01
4.570000000000000000e+02 2.189041922215277935e+01
4.580000000000000000e+02 9.360330489423219547e+00
4.590000000000000000e+02 1.742360059946063799e+01
4.600000000000000000e+02 2.340978470234249187e+01
4.610000000000000000e+02 4.485513241186293243e+01
4.620000000000000000e+02 1.994992477660200336e+01
4.630000000000000000e+02 7.320900199751066850e+01
4.640000000000000000e+02 1.385521280174219783e+01
4.650000000000000000e+02 1.181208132254722543e+01
4.660000000000000000e+02 6.319741791536998221e+01
4.670000000000000000e+02 1.029455312590747269e+02
4.680000000000000000e+02 7.913989612194087897e+01
4.690000000000000000e+02 4.517871005807906215e+01
4.700000000000000000e+02 1.130469088985685566e+01
4.710000000000000000e+02 1.202273684878729476e+01
4.720000000000000000e+02 3.732206806471636185e+01
4.730000000000000000e+02 5.319574228998252607e+00
4.740000000000000000e+02 3.919872748807297569e+01
4.750000000000000000e+02 1.962462327193687628e+01
4.760000000000000000e+02 4.796175158473306510e+01
4.770000000000000000e+02 2.615736884463829526e+01
4.780000000000000000e+02 3.269864978220217466e+01
4.790000000000000000e+02 7.746575718730662174e+01
4.800000000000000000e+02 7.563614482887390977e+01
4.810000000000000000e+02 6.585662699647373586e+01
4.820000000000000000e+02 6.005961699647416907e+01
4.830000000000000000e+02 3.972590212196620740e+01
4.840000000000000000e+02 9.475858250777842784e+01
4.850000000000000000e+02 5.174866559104147967e+01
4.860000000000000000e+02 4.817046424393307547e+01
4.870000000000000000e+02 1.086789267662310863e+02
4.880000000000000000e+02 1.568948880132723502e+02
4.890000000000000000e+02 9.364599504044784339e+01
4.900000000000000000e+02 1.680795348475430444e+02
4.910000000000000000e+02 2.353917719411037126e+02
4.920000000000000000e+02 2.191363135241638815e+02
4.930000000000000000e+02 1.960755627878039888e+02
4.940000000000000000e+02 2.887957681874727882e+02
4.950000000000000000e+02 2.766654819954376876e+02
4.960000000000000000e+02 2.754815234391209628e+02
4.970000000000000000e+02 2.953328768927607371e+02
4.980000000000000000e+02 2.998145274424395552e+02
4.990000000000000000e+02 2.846525683468165653e+02
5.000000000000000000e+02 2.615636164696121000e+02
5.010000000000000000e+02 2.942605552375021034e+02
5.020000000000000000e+02 3.526528641568134503e+02
5.030000000000000000e+02 4.293679687616685214e+02
5.040000000000000000e+02 5.614947060775773480e+02
5.050000000000000000e+02 6.204883465671020986e+02
5.060000000000000000e+02 6.867969590126541561e+02
5.070000000000000000e+02 8.022290770379602236e+02
5.080000000000000000e+02 9.606177143538691325e+02
5.090000000000000000e+02 1.132584469929493480e+03
5.100000000000000000e+02 1.230784691972622795e+03
5.110000000000000000e+02 1.429204350342255566e+03
5.120000000000000000e+02 1.622072886745485903e+03
5.130000000000000000e+02 1.811784933208874008e+03
5.140000000000000000e+02 2.064278667772705830e+03
5.150000000000000000e+02 2.338615479983407567e+03
5.160000000000000000e+02 2.613668335407593077e+03
5.170000000000000000e+02 2.892730466196603629e+03
5.180000000000000000e+02 3.154637576229004026e+03
5.190000000000000000e+02 3.434391507778478172e+03
5.200000000000000000e+02 3.856495617793430029e+03
5.210000000000000000e+02 4.152650016801480888e+03
5.220000000000000000e+02 4.452284014934675724e+03
5.230000000000000000e+02 4.823320216922422333e+03
5.240000000000000000e+02 5.249274123833210979e+03
5.250000000000000000e+02 5.639506729931537848e+03
5.260000000000000000e+02 5.862655948973236264e+03
5.270000000000000000e+02 6.194780803360290520e+03
5.280000000000000000e+02 6.503730314250150514e+03
5.290000000000000000e+02 6.653663595519600676e+03
5.300000000000000000e+02 6.681101026130236278e+03
5.310000000000000000e+02 6.714308521053723780e+03
5.320000000000000000e+02 6.694947206181290312e+03
5.330000000000000000e+02 6.506161379095807206e+03
5.340000000000000000e+02 6.250870838830114735e+03
5.350000000000000000e+02 6.015523746525612296e+03
5.360000000000000000e+02 5.606968507050999506e+03
5.370000000000000000e+02 5.376347427089806843e+03
5.380000000000000000e+02 5.129340397013060283e+03
5.390000000000000000e+02 4.946052388923457329e+03
5.400000000000000000e+02 4.912122208670400141e+03
5.410000000000000000e+02 4.936217367143747651e+03
5.420000000000000000e+02 5.036838464841313908e+03
5.430000000000000000e+02 5.287880072806461612e+03
5.440000000000000000e+02 5.568287976146032634e+03
5.450000000000000000e+02 5.862713546981951367e+03
5.460000000000000000e+02 6.238279520638868235e+03
5.470000000000000000e+02 6.586839349719971324e+03
5.480000000000000000e+02 7.004330227753584040e+03
5.490000000000000000e+02 7.527783673926577649e+03
5.500000000000000000e+02 8.038135327317989322e+03
5.510000000000000000e+02 8.459298892346001594e+03
5.520000000000000000e+02 8.968540784069706206e+03
5.530000000000000000e+02 9.538341787017843671e+03
5.540000000000000000e+02 1.009414214270899356e+04
5.550000000000000000e+02 1.053829449076955461e+04
5.560000000000000000e+02 1.083189279966819231e+04
5.570000000000000000e+02 1.100336037336652407e+04
5.580000000000000000e+02 1.100445626218626785e+04
5.590000000000000000e+02 1.082431787432600140e+04
5.600000000000000000e+02 1.035440893383116418e+04
5.610000000000000000e+02 9.621267310516484940e+03
5.620000000000000000e+02 8.769126710493554128e+03
5.630000000000000000e+02 7.965037279817459421e+03
5.640000000000000000e+02 7.027240317983818386e+03
5.650000000000000000e+02 6.275392488487853370e+03
5.660000000000000000e+02 5.509688912881136275e+03
5.670000000000000000e+02 4.659259673096868028e+03
5.680000000000000000e+02 4.100038948558382799e+03
5.690000000000000000e+02 3.545718625803772738e+03
5.700000000000000000e+02 3.060766228998135375e+03
5.710000000000000000e+02 2.705347672059735942e+03
5.720000000000000000e+02 2.375622550508192944e+03
5.730000000000000000e+02 2.002016431445761100e+03
5.740000000000000000e+02 1.808148225057040918e+03
5.750000000000000000e+02 1.525570073428750220e+03
5.760000000000000000e+02 1.317140718523129863e+03
5.770000000000000000e+02 1.185108090645094308e+03
5.780000000000000000e+02 1.066901070317361473e+03
5.790000000000000000e+02 9.421967266694344971e+02
5.800000000000000000e+02 7.225485735532049603e+02
5.810000000000000000e+02 6.659670983198504928e+02
5.820000000000000000e+02 6.146593441518057261e+02
5.830000000000000000e+02 4.853339512549270580e+02
5.840000000000000000e+02 3.760384032980722964e+02
5.850000000000000000e+02 3.034492739112407662e+02
5.860000000000000000e+02 2.595191705870154806e+02
5.870000000000000000e+02 2.193223924704426224e+02
5.880000000000000000e+02 1.377498433222739322e+02
5.890000000000000000e+02 5.066848874300008276e+01
5.900000000000000000e+02 6.650569254304069489e+01
5.910000000000000000e+02 2.091827274216966259e+01
5.920000000000000000e+02 5.393287968886097872e+01
5.930000000000000000e+02 5.257024859987606646e+01
5.940000000000000000e+02 1.011167677037904156e+01
5.950000000000000000e+02 5.055876036714447253e+01
5.960000000000000000e+02 2.683687634100743225e+01
5.970000000000000000e+02 8.792089663347391948e+00
5.980000000000000000e+02 1.182614748786524395e+01
5.990000000000000000e+02 3.969330655673321218e+01
6.000000000000000000e+02 5.709688438083266249e+01
6.010000000000000000e+02 9.293730364032236935e+01
6.020000000000000000e+02 1.072565589296820008e+02
6.030000000000000000e+02 1.461517619788418756e+02
6.040000000000000000e+02 1.700530864343481596e+02
6.050000000000000000e+02 1.820558071547051213e+02
6.060000000000000000e+02 2.182625081725785208e+02
6.070000000000000000e+02 1.949498565650282558e+02
6.080000000000000000e+02 1.901224781418495979e+02
6.090000000000000000e+02 2.830979188135253821e+02
6.100000000000000000e+02 3.736600073013900669e+02
6.110000000000000000e+02 4.458187456751721243e+02
6.120000000000000000e+02 5.647066382493262608e+02
6.130000000000000000e+02 5.644268767109083456e+02
6.140000000000000000e+02 6.219766821821220901e+02
6.150000000000000000e+02 6.330715166770371525e+02
6.160000000000000000e+02 6.978461359186989057e+02
6.170000000000000000e+02 8.381580269446218381e+02
6.180000000000000000e+02 8.389642291995043024e+02
6.190000000000000000e+02 8.973590538892317454e+02
6.200000000000000000e+02 9.650134200373347539e+02
6.210000000000000000e+02 9.709301016175842278e+02
6.220000000000000000e+02 9.453565461937356531e+02
6.230000000000000000e+02 9.446328581622074125e+02
6.240000000000000000e+02 9.209960340107842285e+02
6.250000000000000000e+02 9.056837352209084884e+02
6.260000000000000000e+02 8.224926373988798787e+02
6.270000000000000000e+02 7.456670427623386104e+02
6.280000000000000000e+02 7.004749790499884057e+02
6.290000000000000000e+02 6.253939757311742369e+02
6.300000000000000000e+02 5.235114499377808670e+02
6.310000000000000000e+02 4.771664038373766630e+02
6.320000000000000000e+02 4.285633766645898959e+02
6.330000000000000000e+02 3.327087150176375872e+02
6.340000000000000000e+02 2.440210955818316449e+02
6.350000000000000000e+02 2.733981287492208025e+02
6.360000000000000000e+02 1.894365006845067398e+02
6.370000000000000000e+02 1.965973650694866137e+02
6.380000000000000000e+02 1.668518166770406879e+02
6.390000000000000000e+02 9.568906868077182537e+01
6.400000000000000000e+02 8.565869479983392409e+01
6.410000000000000000e+02 1.257073709603814109e+02
6.420000000000000000e+02 1.484660879485583678e+02
6.430000000000000000e+02 2.141272158680496318e+01
6.440000000000000000e+02 1.956859361128321950e+01
6.450000000000000000e+02 1.312431282099201546e+01
6.460000000000000000e+02 3.304949378552110772e+01
6.470000000000000000e+02 6.145362858980420562e+00
6.480000000000000000e+02 5.205288442439368168e+01
6.490000000000000000e+02 2.181156566998411250e+01
6.500000000000000000e+02 6.570698065325517589e+00
6.510000000000000000e+02 6.824538707736309107e+00
6.520000000000000000e+02 1.558265482265093205e+01
6.530000000000000000e+02 5.557029484446171175e+00
6.540000000000000000e+02 3.790973507985850688e+01
6.550000000000000000e+02 3.540026212611530809e+01
6.560000000000000000e+02 2.263842502903362686e+01
6.570000000000000000e+02 2.075164710640937571e+01
6.580000000000000000e+02 3.626239159925249034e+00
6.590000000000000000e+02 1.928448096992271488e+01
6.600000000000000000e+02 1.681951115121368900e+01
6.610000000000000000e+02 9.810952773491372625e+00
6.620000000000000000e+02 7.028520850653461594e+01
6.630000000000000000e+02 7.141381662103229644e+01
6.640000000000000000e+02 1.407479609541586640e+01
6.650000000000000000e+02 3.301849442024506942e+01
6.660000000000000000e+02 1.810826367766004097e+01
6.670000000000000000e+02 2.205933575191883378e+00
6.680000000000000000e+02 3.035927648454760330e+01
6.690000000000000000e+02 5.369284876374186410e+01
6.700000000000000000e+02 3.373057378593607325e+01
6.710000000000000000e+02 3.357963721219430653e+00
6.720000000000000000e+02 3.516613078406975035e+01
6.730000000000000000e+02 2.945073531107437148e+01
6.740000000000000000e+02 5.681335421489369963e+01
6.750000000000000000e+02 1.200413987181085957e+02
6.760000000000000000e+02 5.748504637909596227e+01
6.770000000000000000e+02 7.224933051649038873e+01
6.780000000000000000e+02 1.074816830947933539e+02
6.790000000000000000e+02 1.095691329116550179e+02
6.800000000000000000e+02 6.856181464841337458e+01
6.810000000000000000e+02 4.346386794233531248e+01
6.820000000000000000e+02 9.280611880962244697e+01
6.830000000000000000e+02 6.193061398879935098e+01
6.840000000000000000e+02 9.001092514002106526e+00
6.850000000000000000e+02 2.612387566030685448e+01
6.860000000000000000e+02 5.370252505704220880e+01
6.870000000000000000e+02 3.486035912258857650e+01
6.880000000000000000e+02 6.122672597593852828e+01
6.890000000000000000e+02 6.455018803982565601e+01
6.900000000000000000e+02 5.705697119684704433e+01
6.910000000000000000e+02 6.847548892345962201e+01
6.920000000000000000e+02 8.886925950217776915e+01
6.930000000000000000e+02 1.025706959178587852e+02
6.940000000000000000e+02 1.265280832192500071e+02
6.950000000000000000e+02 1.559498238954578824e+02
6.960000000000000000e+02 1.052665918232758173e+02
6.970000000000000000e+02 1.036284896266316764e+02
6.980000000000000000e+02 1.528035100186659747e+02
6.990000000000000000e+02 1.727838526239377472e+02
7.000000000000000000e+02 1.480012378344744377e+02
7.010000000000000000e+02 1.487347663210281610e+02
7.020000000000000000e+02 1.739811736776599957e+02
7.030000000000000000e+02 1.615270751503842916e+02
7.040000000000000000e+02 1.314028467648278422e+02
7.050000000000000000e+02 1.166026197261973891e+02
7.060000000000000000e+02 6.871194900435568798e+01
7.070000000000000000e+02 7.219686326835405055e+01
7.080000000000000000e+02 1.337452531217615217e+02
7.090000000000000000e+02 2.225591319850680918e+02
7.100000000000000000e+02 2.126856958108712661e+02
7.110000000000000000e+02 1.390612920348486909e+02
7.120000000000000000e+02 1.988139299730347318e+02
7.130000000000000000e+02 1.865706703588483890e+02
7.140000000000000000e+02 1.222271004148528277e+02
7.150000000000000000e+02 1.490463516490322888e+02
7.160000000000000000e+02 1.753228501555703644e+02
7.170000000000000000e+02 1.523294406969500869e+02
7.180000000000000000e+02 1.911491577266127422e+02
7.190000000000000000e+02 1.548415352001656515e+02
7.200000000000000000e+02 7.606238770379565040e+01
7.210000000000000000e+02 7.766650713544918005e+01
7.220000000000000000e+02 1.317205852520238807e+02
7.230000000000000000e+02 1.538217241858534123e+02
7.240000000000000000e+02 1.326947969508399581e+02
7.250000000000000000e+02 1.703009004355959348e+02
7.260000000000000000e+02 1.345246435594274885e+02
7.270000000000000000e+02 1.647244608461236339e+02
7.280000000000000000e+02 1.740564485376497714e+02
7.290000000000000000e+02 1.397960723086491441e+02
7.300000000000000000e+02 1.253051160514300193e+02
7.310000000000000000e+02 1.034879916614812032e+02
7.320000000000000000e+02 1.206326265090226855e+02
7.330000000000000000e+02 1.063593597055167379e+02
7.340000000000000000e+02 1.208438893590540175e+02
7.350000000000000000e+02 1.501942105372329195e+02
7.360000000000000000e+02 1.309266999585229030e+02
7.370000000000000000e+02 9.441758283551082798e+01
7.380000000000000000e+02 1.214551130056011630e+02
7.390000000000000000e+02 1.600067909769765606e+02
7.400000000000000000e+02 1.609999749844423604e+02
7.410000000000000000e+02 1.373273824932580567e+02
7.420000000000000000e+02 1.370483175689713278e+02
7.430000000000000000e+02 1.787133148724321359e+02
7.440000000000000000e+02 1.173041644886947807e+02
7.450000000000000000e+02 1.453499316531822956e+02
7.460000000000000000e+02 1.571179864136065873e+02
7.470000000000000000e+02 1.335134751088982341e+02
7.480000000000000000e+02 1.286791924082139076e+02
7.490000000000000000e+02 1.547477743829078634e+02
7.500000000000000000e+02 1.737570126322339661e+02
7.510000000000000000e+02 1.240591563368587202e+02
7.520000000000000000e+02 1.101465529558183647e+02
7.530000000000000000e+02 1.238256966818748026e+02
7.540000000000000000e+02 1.194859284588253416e+02
7.550000000000000000e+02 1.015655289359055899e+02
7.560000000000000000e+02 1.280711811489013314e+02
7.570000000000000000e+02 1.871949024268825497e+02
7.580000000000000000e+02 1.204810590707315043e+02
7.590000000000000000e+02 9.421049114060603813e+01
7.600000000000000000e+02 1.235736865588053774e+02
7.610000000000000000e+02 1.185265390168014079e+02
7.620000000000000000e+02 9.929567242430520935e+01
7.630000000000000000e+02 1.228178509645304928e+02
7.640000000000000000e+02 1.761024926363824932e+02
7.650000000000000000e+02 1.537750725425125609e+02
7.660000000000000000e+02 1.144970747977597370e+02
7.670000000000000000e+02 1.050490072184194190e+02
7.680000000000000000e+02 9.947899701099326819e+01
7.690000000000000000e+02 7.108580024061394909e+01
7.700000000000000000e+02 5.314652126944621813e+01
7.710000000000000000e+02 5.532080824517747430e+01
7.720000000000000000e+02 1.062436334868282586e+02
7.730000000000000000e+02 1.274053946691565500e+02
7.740000000000000000e+02 9.126514638664177426e+01
7.750000000000000000e+02 1.090767309271935090e+02
7.760000000000000000e+02 8.226508180875389087e+01
7.770000000000000000e+02 7.124953710226095893e+01
7.780000000000000000e+02 8.385543247822455726e+01
7.790000000000000000e+02 1.110200027691343365e+02
7.800000000000000000e+02 1.187599041277753145e+02
7.810000000000000000e+02 7.516356951462357472e+01
7.820000000000000000e+02 2.546275831362785880e+01
7.830000000000000000e+02 6.881059700684492952e+01
7.840000000000000000e+02 8.267868462352190306e+01
7.850000000000000000e+02 7.246418212818896620e+01
7.860000000000000000e+02 8.489942580170169606e+01
7.870000000000000000e+02 9.006495816635688811e+01
7.880000000000000000e+02 2.001152516490523681e+01
7.890000000000000000e+02 2.180108422526469525e+01
7.900000000000000000e+02 2.435741346401760765e+00
7.910000000000000000e+02 4.919894592822755897e+01
7.920000000000000000e+02 5.408202959552151867e+01
7.930000000000000000e+02 2.312946841319104507e+01
7.940000000000000000e+02 6.493996909147389829e+01
7.950000000000000000e+02 8.739142701990864737e+01
7.960000000000000000e+02 8.609304711470652194e+01
7.970000000000000000e+02 9.178987253889235376e+01
7.980000000000000000e+02 7.096807738697638968e+01
7.990000000000000000e+02 1.785075076374107539e+01
8.000000000000000000e+02 1.675895535573559414e+01
8.010000000000000000e+02 7.399830998340856070e+01
8.020000000000000000e+02 4.485381244554936586e+01
8.030000000000000000e+02 3.657710235428357493e+01
8.040000000000000000e+02 6.296047954790392254e+01
8.050000000000000000e+02 1.078587849367326186e+02
8.060000000000000000e+02 9.947630039825499182e+01
8.070000000000000000e+02 4.843225028624456030e+01
8.080000000000000000e+02 1.222454636797361189e+02
8.090000000000000000e+02 5.251296725783259234e+01
8.100000000000000000e+02 1.701200152250588715e+01
8.110000000000000000e+02 4.116069241443823579e+00
8.120000000000000000e+02 1.604837643227499555e+01
8.130000000000000000e+02 1.544727100974871981e+01
8.140000000000000000e+02 2.293277138145630900e+01
8.150000000000000000e+02 4.273646231487256841e+01
8.160000000000000000e+02 7.703839246421989628e+01
8.170000000000000000e+02 6.059077407799112791e+01
8.180000000000000000e+02 2.754338921800371054e+01
8.190000000000000000e+02 2.251864096867929987e+01
8.200000000000000000e+02 3.629428690105753219e+01
8.210000000000000000e+02 3.686911148900971824e+01
8.220000000000000000e+02 6.134125173200548176e+01
8.230000000000000000e+02 5.913131330636867489e+01
8.240000000000000000e+02 3.517598489423409802e+01
8.250000000000000000e+02 6.233802059738511758e+01
8.260000000000000000e+02 1.000069203816636616e+02
8.270000000000000000e+02 8.761172902944858265e+01
8.280000000000000000e+02 7.812060600497824225e+01
8.290000000000000000e+02 1.105245575606720649e+02
8.300000000000000000e+02 3.241591797801566344e+01
8.310000000000000000e+02 2.375267356772529581e+01
8.320000000000000000e+02 4.310731320265512068e+01
8.330000000000000000e+02 5.190833985898041192e+01
8.340000000000000000e+02 5.973602604853642362e+01
8.350000000000000000e+02 2.814150923044938324e+01
8.360000000000000000e+02 6.817442069072495947e+00
8.370000000000000000e+02 5.708340524579968545e+00
8.380000000000000000e+02 5.243622714374872373e+00
8.390000000000000000e+02 1.929376188736621600e+01
8.400000000000000000e+02 6.679215088985581872e+01
8.410000000000000000e+02 5.323984201202915756e+01
8.420000000000000000e+02 3.096952547189361127e+01
8.430000000000000000e+02 1.052246168201625842e+01
8.440000000000000000e+02 2.440123887367759181e+01
8.450000000000000000e+02 1.500266755030048671e+01
8.460000000000000000e+02 2.053471967102296603e+01
8.470000000000000000e+02 2.804543109290719016e+01
8.480000000000000000e+02 1.077441078407002273e+01
8.490000000000000000e+02 1.634834156399053384e+01
8.500000000000000000e+02 6.069716360846117098e+00
8.510000000000000000e+02 1.219847721634579329e+01
8.520000000000000000e+02 2.169494585563160527e+01
8.530000000000000000e+02 4.861770950642969069e+01
8.540000000000000000e+02 6.781594189587165999e+01
8.550000000000000000e+02 2.752418475834839739e+01
8.560000000000000000e+02 4.689067197428372857e+00
8.570000000000000000e+02 5.148671459863024324e+01
8.580000000000000000e+02 7.292295407384361283e+01
8.590000000000000000e+02 6.639413282721432097e+01
8.600000000000000000e+02 6.143096175482263988e+01
8.610000000000000000e+02 5.047214665214680451e+01
8.620000000000000000e+02 2.928882127152044035e+01
8.630000000000000000e+02 3.077213052467859455e+01
8.640000000000000000e+02 2.617467847956855564e+01
8.650000000000000000e+02 2.785279970752959144e+01
8.660000000000000000e+02 7.959524483616651658e+00
8.670000000000000000e+02 2.385459936569126782e+01
8.680000000000000000e+02 9.063324053100944866e+01
8.690000000000000000e+02 1.077671736623808414e+02
8.700000000000000000e+02 8.713781564405729796e+01
8.710000000000000000e+02 1.061863490562121086e+02
8.720000000000000000e+02 6.681417505599380036e+01
8.730000000000000000e+02 2.130745406554711963e+01
8.740000000000000000e+02 3.503369138767867597e+00
8.750000000000000000e+02 8.946227238332333798e+00
8.760000000000000000e+02 2.303076094793612683e+01
8.770000000000000000e+02 4.017114778469197489e+01
8.780000000000000000e+02 7.828814163244109636e+01
8.790000000000000000e+02 9.107375529558177618e+01
8.800000000000000000e+02 6.540933559842299871e+01
8.810000000000000000e+02 1.013965577224628021e+02
8.820000000000000000e+02 1.114588143683902501e+02
8.830000000000000000e+02 4.113681850031322540e+01
8.840000000000000000e+02 2.859095348475349141e+01
8.850000000000000000e+02 1.043738122132318438e+02
8.860000000000000000e+02 6.997453501348518046e+01
8.870000000000000000e+02 2.295537765193947166e+01
8.880000000000000000e+02 8.323978330427365790e+00
8.890000000000000000e+02 4.024874798838771284e+01
8.900000000000000000e+02 7.637955606928049868e+00
8.910000000000000000e+02 7.729425540344289303e+00
8.920000000000000000e+02 1.578146668187475399e+01
8.930000000000000000e+02 2.631208731176142024e+01
8.940000000000000000e+02 8.247516248288815177e+01
8.950000000000000000e+02 6.202938058067441318e+01
8.960000000000000000e+02 3.798809138352986281e+01
8.970000000000000000e+02 4.299612820784043521e+01
8.980000000000000000e+02 1.833899236416560896e+01
8.990000000000000000e+02 3.415257852520401372e+00
9.000000000000000000e+02 1.072304721281844309e+02
9.010000000000000000e+02 1.982813756482094547e+01
9.020000000000000000e+02 8.535997944617927047e+00
9.030000000000000000e+02 1.118223461107575112e+01
9.040000000000000000e+02 4.916850005393015266e+01
9.050000000000000000e+02 6.624170377100259088e+01
9.060000000000000000e+02 1.990553555693821153e+01
9.070000000000000000e+02 4.576596667081525283e+01
9.080000000000000000e+02 8.856367566894714827e+00
9.090000000000000000e+02 1.044234147604259277e+01
9.100000000000000000e+02 4.727387538061758931e+00
9.110000000000000000e+02 5.228037803360643210e+01
9.120000000000000000e+02 8.544539546774360872e+01
9.130000000000000000e+02 1.028164387637656674e+01
9.140000000000000000e+02 6.032771543455990582e+01
9.150000000000000000e+02 1.032249246163419798e+02
9.160000000000000000e+02 9.285719498444332487e+01
9.170000000000000000e+02 9.819566394523957342e+01
9.180000000000000000e+02 4.480563213189883243e+01
9.190000000000000000e+02 1.067392754698219726e+01
9.200000000000000000e+02 3.553691571250591608e+01
9.210000000000000000e+02 1.086523920779758186e+02
9.220000000000000000e+02 8.484983086289142307e+01
9.230000000000000000e+02 8.007045981539097568e+01
9.240000000000000000e+02 1.671269539941770077e+01
9.250000000000000000e+02 5.385721971374887396e+00
9.260000000000000000e+02 3.242299179423492461e+01
9.270000000000000000e+02 4.835423279344610137e+01
9.280000000000000000e+02 4.691426515246432416e+01
9.290000000000000000e+02 1.610901812072163182e+02
9.300000000000000000e+02 7.240146878656123874e+01
9.310000000000000000e+02 5.166695412362628304e+01
9.320000000000000000e+02 7.433905421281941983e+01
9.330000000000000000e+02 6.628455292263096510e+01
9.340000000000000000e+02 3.714951797137577927e+01
9.350000000000000000e+02 2.258258629952312901e+01
9.360000000000000000e+02 4.269413874507354478e+01
9.370000000000000000e+02 1.057091519767682115e+02
9.380000000000000000e+02 3.536766794026168270e+01
9.390000000000000000e+02 1.378017141257003075e+01
9.400000000000000000e+02 1.666034288736441660e+00
9.410000000000000000e+02 5.363693829496113352e+01
9.420000000000000000e+02 1.003912366023642733e+02
9.430000000000000000e+02 6.345618232683531801e+01
9.440000000000000000e+02 5.528986005807910686e+01
9.450000000000000000e+02 4.766761006015349977e+01
9.460000000000000000e+02 5.760746925342180447e+01
9.470000000000000000e+02 3.356522365276872932e+01
9.480000000000000000e+02 7.687322841526674999e+00
9.490000000000000000e+02 2.341179981169679891e+01
9.500000000000000000e+02 7.285649607550305973e+01
9.510000000000000000e+02 8.004144429371493175e+01
9.520000000000000000e+02 9.455946617171291280e+01
9.530000000000000000e+02 4.662555120099552397e+01
9.540000000000000000e+02 6.436767182327295700e+01
9.550000000000000000e+02 6.038676909977169771e+01
9.560000000000000000e+02 4.020338504044805461e+01
9.570000000000000000e+02 4.878708355113083428e+01
9.580000000000000000e+02 9.108833789255362490e+01
9.590000000000000000e+02 1.075843083405934948e+02
9.600000000000000000e+02 4.836659490354788460e+01
9.610000000000000000e+02 1.211307205973864498e+01
9.620000000000000000e+02 9.407928051441547268e+01
9.630000000000000000e+02 4.821551168222555361e+01
9.640000000000000000e+02 6.105772070317328115e+01
9.650000000000000000e+02 6.819121766646007643e+01
9.660000000000000000e+02 1.235016556523605225e+01
9.670000000000000000e+02 1.763621499481426724e+01
9.680000000000000000e+02 3.649632239784229881e+01
9.690000000000000000e+02 9.067852833471567919e+01
9.700000000000000000e+02 8.429020627255754050e+01
9.710000000000000000e+02 9.127968723916202975e+01
9.720000000000000000e+02 8.577741586893461090e+01
9.730000000000000000e+02 6.621875569798817196e+01
9.740000000000000000e+02 5.833186690105785743e+01
9.750000000000000000e+02 6.155101395686420318e+01
9.760000000000000000e+02 6.798851322547187692e+01
9.770000000000000000e+02 5.866192279817513366e+01
9.780000000000000000e+02 2.450096117793511752e+01
9.790000000000000000e+02 2.804462705662675148e+01
9.800000000000000000e+02 6.394425995643906901e+01
9.810000000000000000e+02 9.494929445873034979e+01
9.820000000000000000e+02 8.163988366314185896e+01
9.830000000000000000e+02 2.586072920908634032e+01
9.840000000000000000e+02 3.378822372744207492e+00
9.850000000000000000e+02 5.176931585770572042e+01
9.860000000000000000e+02 1.165311490769549181e+02
9.870000000000000000e+02 8.948522474797637472e+01
9.880000000000000000e+02 5.192126701929034027e+01
9.890000000000000000e+02 5.903748032980757188e+01
9.900000000000000000e+02 8.960858222982673738e+01
9.910000000000000000e+02 1.011959116116982784e+02
9.920000000000000000e+02 6.350607338518813805e+01
9.930000000000000000e+02 2.540444119477385954e+01
9.940000000000000000e+02 2.973563573947255279e+01
9.950000000000000000e+02 3.051410560879492451e+01
9.960000000000000000e+02 7.521423285417836269e+01
9.970000000000000000e+02 8.730731303671535670e+01
9.980000000000000000e+02 7.689994225839828346e+01
9.990000000000000000e+02 1.048407898361333395e+02
1.000000000000000000e+03 1.077379176026545053e+02
1.001000000000000000e+03 4.092155058091407227e+01
1.002000000000000000e+03 1.356992323651435051e+01
1.003000000000000000e+03 2.074640273858929262e+01
1.004000000000000000e+03 3.110583917012441546e+01
1.005000000000000000e+03 3.296403066390035974e+01
1.006000000000000000e+03 5.818785103734347786e+01
1.007000000000000000e+03 6.234679695651968245e+01
1.008000000000000000e+03 3.358204914937852337e+00
1.009000000000000000e+03 5.257027576763471899e+01
1.010000000000000000e+03 4.124496767634855843e+01
1.011000000000000000e+03 6.463742376811619295e+01
1.012000000000000000e+03 2.341186729460441995e+01
1.013000000000000000e+03 3.131409369294482303e+01
1.014000000000000000e+03 6.597464829875548276e+01
1.015000000000000000e+03 4.402988838509338620e+01
1.016000000000000000e+03 1.234135597510385551e+01
1.017000000000000000e+03 3.199060363070528723e+01
1.018000000000000000e+03 6.668164989626488293e+00
1.019000000000000000e+03 2.902008829875623519e+01
1.020000000000000000e+03 5.075580427385883553e+01
1.021000000000000000e+03 6.982517199170230526e+01
1.022000000000000000e+03 6.547821000000000424e+01
1.023000000000000000e+03 6.342189813277873611e+01
1.024000000000000000e+03 8.325286726141088423e+01
1.025000000000000000e+03 8.581052255186737909e+01
1.026000000000000000e+03 8.479122226141168994e+01
1.027000000000000000e+03 1.110895773858922979e+02
1.028000000000000000e+03 1.021773695850638859e+02
1.029000000000000000e+03 1.931804502074585983e+01
1.030000000000000000e+03 6.090569294606973472e+01
1.031000000000000000e+03 6.895909000000951039e+01
1.032000000000000000e+03 4.228220095238095944e+00
1.033000000000000000e+03 3.260671022821741616e+01
1.034000000000000000e+03 4.560657560165994795e+01
1.035000000000000000e+03 9.504310238590971238e+00
1.036000000000000000e+03 4.405258946059512404e+00
1.037000000000000000e+03 6.617618531120804448e+01
1.038000000000000000e+03 1.382316103734416686e+02
1.039000000000000000e+03 8.493551668049978787e+01
1.040000000000000000e+03 4.652023192946638375e+01
1.041000000000000000e+03 8.243414759336390318e+01
1.042000000000000000e+03 5.948391493775905303e+01
1.043000000000000000e+03 7.395497921161845056e+01
1.044000000000000000e+03 7.102966724066298809e+01
1.045000000000000000e+03 4.949697112033326363e+01
1.046000000000000000e+03 3.688686290456431749e+01
1.047000000000000000e+03 4.378291095435761804e+01
1.048000000000000000e+03 5.301923842323583358e+01
1.049000000000000000e+03 3.038706813278101393e+01
1.050000000000000000e+03 2.179330921162156898e+01
1.051000000000000000e+03 8.607400082987588519e+01
1.052000000000000000e+03 8.293190488612911793e+01
1.053000000000000000e+03 7.958777136929492713e+01
1.054000000000000000e+03 1.150874780083009199e+02
1.055000000000000000e+03 1.187562103734453274e+02
1.056000000000000000e+03 9.925193601659834997e+01
1.057000000000000000e+03 3.500380543567992220e+01
1.058000000000000000e+03 4.023661968671761713e+01
1.059000000000000000e+03 5.314778161826373548e+01
1.060000000000000000e+03 4.668774821576776191e+01
1.061000000000000000e+03 6.909692455487240181e+01
1.062000000000000000e+03 4.234438224066722967e+01
1.063000000000000000e+03 5.776570767634884618e+01
1.064000000000000000e+03 2.302717568464661113e+01
1.065000000000000000e+03 6.720828666667080142e+01
1.066000000000000000e+03 8.304737902489806345e+01
1.067000000000000000e+03 6.022920112033209250e+01
1.068000000000000000e+03 6.128229489626459525e+01
1.069000000000000000e+03 5.259037703933731933e+01
1.070000000000000000e+03 5.086538041493778195e+01
1.071000000000000000e+03 2.898918941908707936e+01
1.072000000000000000e+03 6.243895153526807462e+01
1.073000000000000000e+03 4.606487556016757168e+01
1.074000000000000000e+03 8.251641649377836529e+01
1.075000000000000000e+03 5.362002811202384578e+01
1.076000000000000000e+03 1.239704572613949729e+01
1.077000000000000000e+03 4.450701078837442815e+00
1.078000000000000000e+03 3.149209215768316383e+01
1.079000000000000000e+03 1.412476763485505842e+02
1.080000000000000000e+03 8.018277788381891469e+01
1.081000000000000000e+03 6.780455854771814472e+01
1.082000000000000000e+03 8.453024674273873984e+01
1.083000000000000000e+03 9.347334759336109755e+01
1.084000000000000000e+03 5.904013062240637311e+01
1.085000000000000000e+03 6.461596406639483803e+01
1.086000000000000000e+03 7.177333024896647373e+01
1.087000000000000000e+03 8.846738431536095959e+00
1.088000000000000000e+03 2.822899676348572484e+01
1.089000000000000000e+03 1.307613780083050692e+01
1.090000000000000000e+03 6.859632221991668644e+01
1.091000000000000000e+03 6.013475516597544868e+01
1.092000000000000000e+03 9.740216159751250302e+01
1.093000000000000000e+03 5.791319952282889716e+01
1.094000000000000000e+03 3.584447863353948094e+01
1.095000000000000000e+03 6.485413531120332209e+01
1.096000000000000000e+03 5.334200145228198409e+01
1.097000000000000000e+03 3.325008302904352320e+01
1.098000000000000000e+03 5.615704536231901756e+01
1.099000000000000000e+03 3.603886037344658888e+01
1.100000000000000000e+03 3.140886363070615772e+01
1.101000000000000000e+03 2.748706823651512821e+01
1.102000000000000000e+03 4.390438271784243796e+01
1.103000000000000000e+03 4.480614294605867087e+01
1.104000000000000000e+03 5.696491970954322426e+01
1.105000000000000000e+03 5.254397302904617817e+01
1.106000000000000000e+03 3.562226207468975758e+01
1.107000000000000000e+03 5.567393975103851744e+01
1.108000000000000000e+03 5.961043802904566746e+01
1.109000000000000000e+03 4.236496902489996330e+01
1.110000000000000000e+03 4.688722087136908101e+01
1.111000000000000000e+03 4.889361804979333925e+01
1.112000000000000000e+03 4.237715726141151151e+01
1.113000000000000000e+03 2.044355900414371874e+01
1.114000000000000000e+03 8.067889020746603634e+00
1.115000000000000000e+03 2.604288311618363139e+01
1.116000000000000000e+03 7.051696543568559150e+01
1.117000000000000000e+03 3.131345091286368643e+01
1.118000000000000000e+03 2.140356632780182977e+01
1.119000000000000000e+03 1.158338062655540845e+01
1.120000000000000000e+03 2.912742489626807796e+01
1.121000000000000000e+03 5.585159190871332413e+01
1.122000000000000000e+03 5.407527037344393506e+01
1.123000000000000000e+03 5.970829333333232825e+01
1.124000000000000000e+03 6.823473543568890420e+01
1.125000000000000000e+03 3.907887717842314146e+01
1.126000000000000000e+03 5.452733786307074837e+01
1.127000000000000000e+03 4.723200031055947079e+01
1.128000000000000000e+03 4.066157551867252096e+01
1.129000000000000000e+03 2.163195352697060159e+01
1.130000000000000000e+03 6.167748970954592380e+01
1.131000000000000000e+03 7.540655130434940645e+01
1.132000000000000000e+03 2.208288674481313052e+01
1.133000000000000000e+03 1.892763037344801091e+01
1.134000000000000000e+03 9.011852775932766235e+01
1.135000000000000000e+03 1.221950346473047659e+02
1.136000000000000000e+03 7.385873070539237517e+01
1.137000000000000000e+03 5.972620195020681422e+01
1.138000000000000000e+03 1.087374443983393348e+02
1.139000000000000000e+03 7.411368435684661904e+01
1.140000000000000000e+03 1.245702515560223844e+02
1.141000000000000000e+03 1.294429151452303302e+02
1.142000000000000000e+03 1.028811829875527053e+02
1.143000000000000000e+03 1.236788653526985087e+02
1.144000000000000000e+03 1.677870149377564246e+02
1.145000000000000000e+03 1.868230838174273174e+02
1.146000000000000000e+03 1.767676116182568080e+02
1.147000000000000000e+03 1.472994929460588480e+02
1.148000000000000000e+03 1.647074342323643350e+02
1.149000000000000000e+03 1.657656717842324952e+02
1.150000000000000000e+03 1.472241174273843285e+02
1.151000000000000000e+03 8.263500062240819943e+01
1.152000000000000000e+03 3.698481809523912744e+01
1.153000000000000000e+03 9.627769950207738248e+01
1.154000000000000000e+03 8.242155800828840029e+01
1.155000000000000000e+03 1.571236153526941060e+01
1.156000000000000000e+03 4.559032697095404529e+01
1.157000000000000000e+03 2.663930454356786015e+01
1.158000000000000000e+03 3.087531865144498866e+01
1.159000000000000000e+03 9.848020435684507845e+01
1.160000000000000000e+03 1.090919619047616891e+02
1.161000000000000000e+03 9.268885796680403644e+01
1.162000000000000000e+03 4.709890593361308220e+01
1.163000000000000000e+03 3.380888087136918330e+01
1.164000000000000000e+03 6.950628224066676353e+01
1.165000000000000000e+03 5.493693174274646651e+01
1.166000000000000000e+03 4.149794338174562114e+00
1.167000000000000000e+03 5.156427466805264714e+01
1.168000000000000000e+03 1.277234825726172716e+02
1.169000000000000000e+03 6.193563333333645460e+01
1.170000000000000000e+03 6.673470004149383783e+01
1.171000000000000000e+03 1.018753580912908241e+01
1.172000000000000000e+03 4.670226331949725562e+01
1.173000000000000000e+03 6.327794518672215673e+01
1.174000000000000000e+03 5.315647286307007846e+01
1.175000000000000000e+03 3.842420952282099478e+01
1.176000000000000000e+03 1.228368365145276897e+01
1.177000000000000000e+03 1.828185941908699519e+01
1.178000000000000000e+03 4.969902842323683956e+01
1.179000000000000000e+03 3.693317128630685886e+01
1.180000000000000000e+03 5.926723390041443906e+01
1.181000000000000000e+03 6.233385677018566184e+01
1.182000000000000000e+03 9.895469058094034764e+00
1.183000000000000000e+03 7.657427780083470026e+00
1.184000000000000000e+03 6.661801093361032144e+01
1.185000000000000000e+03 4.097714857142479872e+01
1.186000000000000000e+03 3.117340713692497189e+01
1.187000000000000000e+03 7.243417655601665217e+01
1.188000000000000000e+03 6.093844813277916472e+01
1.189000000000000000e+03 3.437837898550540672e+01
1.190000000000000000e+03 1.776586616182361311e+01
1.191000000000000000e+03 1.057134852282170954e+02
1.192000000000000000e+03 6.953919639003558473e+01
1.193000000000000000e+03 7.145475091289776870e+00
1.194000000000000000e+03 3.844952248962702868e+01
1.195000000000000000e+03 8.742736112033453821e+01
1.196000000000000000e+03 1.279429890872478381e+01
1.197000000000000000e+03 2.096320257263496245e+00
1.198000000000000000e+03 9.503657904564622072e+01
1.199000000000000000e+03 1.360785205394172124e+02
1.200000000000000000e+03 8.190108396266381874e+01
1.201000000000000000e+03 1.195168648962649627e+01
1.202000000000000000e+03 1.105680913692999212e+02
1.203000000000000000e+03 1.338271618257269324e+02
1.204000000000000000e+03 1.068840298755191327e+02
1.205000000000000000e+03 1.103742900414941346e+02
1.206000000000000000e+03 8.044454697095555673e+01
1.207000000000000000e+03 1.405407650414883847e+02
1.208000000000000000e+03 1.315052981327782504e+02
1.209000000000000000e+03 7.941632543568458402e+01
1.210000000000000000e+03 7.377127890269346722e+01
1.211000000000000000e+03 4.526919136929418386e+01
1.212000000000000000e+03 8.322520543568367657e+01
1.213000000000000000e+03 6.018599390041255504e+01
1.214000000000000000e+03 3.952843378881863856e+01
1.215000000000000000e+03 8.329439576763640218e+01
1.216000000000000000e+03 1.259762684647310778e+02
1.217000000000000000e+03 7.423005941909156036e+01
1.218000000000000000e+03 9.304771341614876690e+01
1.219000000000000000e+03 7.878212854771297202e+01
1.220000000000000000e+03 4.923864464730240798e+01
1.221000000000000000e+03 5.370366008298800153e+01
1.222000000000000000e+03 4.715293626556017159e+01
1.223000000000000000e+03 7.138688304979692134e+01
1.224000000000000000e+03 1.109858856846458934e+02
1.225000000000000000e+03 5.561786091286310096e+01
1.226000000000000000e+03 4.809009576763453708e+01
1.227000000000000000e+03 4.052917394190965439e+01
1.228000000000000000e+03 2.891559215767658131e+01
1.229000000000000000e+03 2.021995481327817856e+01
1.230000000000000000e+03 4.529006435685026588e+01
1.231000000000000000e+03 6.932926091097247934e+01
1.232000000000000000e+03 8.782430433609992804e+01
1.233000000000000000e+03 6.930313350621830182e+01
1.234000000000000000e+03 5.264279848547571561e+01
1.235000000000000000e+03 7.895212062111853868e+01
1.236000000000000000e+03 5.190460398337819470e+00
1.237000000000000000e+03 3.339380290456777090e+01
1.238000000000000000e+03 2.222424684647252846e+01
1.239000000000000000e+03 4.267131500000186151e+01
1.240000000000000000e+03 1.111818136929478129e+02
1.241000000000000000e+03 7.123412408714207800e+01
1.242000000000000000e+03 3.732567078838178531e+01
1.243000000000000000e+03 4.500213101449364217e+01
1.244000000000000000e+03 5.169971680497923217e+01
1.245000000000000000e+03 8.523745394190497393e+01
1.246000000000000000e+03 1.062495175518661483e+02
1.247000000000000000e+03 3.875708282157182794e+01
1.248000000000000000e+03 3.603118456432458316e+00
1.249000000000000000e+03 2.075363200207459613e+01
1.250000000000000000e+03 8.851206180498218146e+01
1.251000000000000000e+03 7.587563769709832684e+01
1.252000000000000000e+03 4.691748593360928510e+01
1.253000000000000000e+03 9.487260381742875381e+01
1.254000000000000000e+03 8.629253448132712379e+01
1.255000000000000000e+03 1.149741331950171030e+02
1.256000000000000000e+03 6.118871742738409125e+01
1.257000000000000000e+03 2.484859723237272533e+01
1.258000000000000000e+03 8.811441701244758917e+01
1.259000000000000000e+03 5.944959622406851452e+01
1.260000000000000000e+03 2.020690753623222591e+01
1.261000000000000000e+03 4.624763941908629050e+01
1.262000000000000000e+03 3.870286402489620059e+01
1.263000000000000000e+03 6.530252439834032430e+01
1.264000000000000000e+03 4.496224904761619001e+01
1.265000000000000000e+03 4.074777522820033582e+00
1.266000000000000000e+03 5.273340334024545051e+00
1.267000000000000000e+03 4.672886695020900305e+01
1.268000000000000000e+03 3.917673556016981706e+01
1.269000000000000000e+03 8.140356033194530028e+01
1.270000000000000000e+03 1.279140058091275165e+02
1.271000000000000000e+03 7.768935929460269563e+01
1.272000000000000000e+03 3.800750006211534782e+01
1.273000000000000000e+03 1.244995078838172198e+01
1.274000000000000000e+03 3.741540877593529046e+01
1.275000000000000000e+03 5.532037176348599417e+01
1.276000000000000000e+03 1.019323931120550597e+01
1.277000000000000000e+03 2.030000008298842573e+01
1.278000000000000000e+03 8.435397406639620499e+01
1.279000000000000000e+03 4.528437821577025346e+01
1.280000000000000000e+03 3.488414275362300287e+01
1.281000000000000000e+03 5.459771958506318867e+01
1.282000000000000000e+03 6.131371431535330174e+01
1.283000000000000000e+03 2.523341185684892451e+01
1.284000000000000000e+03 3.605227155601952660e+01
1.285000000000000000e+03 1.198554070539417324e+02
1.286000000000000000e+03 8.060094551867857149e+01
1.287000000000000000e+03 5.296128323651495329e+00
1.288000000000000000e+03 0.000000000000000000e+00
1.289000000000000000e+03 0.000000000000000000e+00
1.290000000000000000e+03 0.000000000000000000e+00
1.291000000000000000e+03 0.000000000000000000e+00
1.292000000000000000e+03 0.000000000000000000e+00
1.293000000000000000e+03 0.000000000000000000e+00
1.294000000000000000e+03 0.000000000000000000e+00
1.295000000000000000e+03 0.000000000000000000e+00
1.296000000000000000e+03 0.000000000000000000e+00
1.297000000000000000e+03 0.000000000000000000e+00
1.298000000000000000e+03 0.000000000000000000e+00
1.299000000000000000e+03 0.000000000000000000e+00
1.300000000000000000e+03 0.000000000000000000e+00
1.301000000000000000e+03 0.000000000000000000e+00
1.302000000000000000e+03 0.000000000000000000e+00
1.303000000000000000e+03 0.000000000000000000e+00
1.304000000000000000e+03 0.000000000000000000e+00
1.305000000000000000e+03 0.000000000000000000e+00
1.306000000000000000e+03 0.000000000000000000e+00
1.307000000000000000e+03 0.000000000000000000e+00
1.308000000000000000e+03 0.000000000000000000e+00
1.309000000000000000e+03 0.000000000000000000e+00
1.310000000000000000e+03 0.000000000000000000e+00
1.311000000000000000e+03 0.000000000000000000e+00
1.312000000000000000e+03 0.000000000000000000e+00
1.313000000000000000e+03 0.000000000000000000e+00
1.314000000000000000e+03 0.000000000000000000e+00
1.315000000000000000e+03 0.000000000000000000e+00
1.316000000000000000e+03 0.000000000000000000e+00
1.317000000000000000e+03 0.000000000000000000e+00
1.318000000000000000e+03 0.000000000000000000e+00
1.319000000000000000e+03 0.000000000000000000e+00
1.320000000000000000e+03 0.000000000000000000e+00
1.321000000000000000e+03 0.000000000000000000e+00
1.322000000000000000e+03 0.000000000000000000e+00
1.323000000000000000e+03 0.000000000000000000e+00
1.324000000000000000e+03 0.000000000000000000e+00
1.325000000000000000e+03 0.000000000000000000e+00
1.326000000000000000e+03 0.000000000000000000e+00
1.327000000000000000e+03 0.000000000000000000e+00
1.328000000000000000e+03 0.000000000000000000e+00
1.329000000000000000e+03 0.000000000000000000e+00
1.330000000000000000e+03 0.000000000000000000e+00
1.331000000000000000e+03 0.000000000000000000e+00
1.332000000000000000e+03 0.000000000000000000e+00
1.333000000000000000e+03 0.000000000000000000e+00
1.334000000000000000e+03 0.000000000000000000e+00
1.335000000000000000e+03 0.000000000000000000e+00
1.336000000000000000e+03 0.000000000000000000e+00
1.337000000000000000e+03 0.000000000000000000e+00
1.338000000000000000e+03 0.000000000000000000e+00
1.339000000000000000e+03 0.000000000000000000e+00
1.340000000000000000e+03 0.000000000000000000e+00
1.341000000000000000e+03 0.000000000000000000e+00
1.342000000000000000e+03 0.000000000000000000e+00
1.343000000000000000e+03 0.000000000000000000e+00
1.344000000000000000e+03 0.000000000000000000e+00
1.345000000000000000e+03 0.000000000000000000e+00
1.346000000000000000e+03 0.000000000000000000e+00
1.347000000000000000e+03 0.000000000000000000e+00
1.348000000000000000e+03 0.000000000000000000e+00
1.349000000000000000e+03 0.000000000000000000e+00
1.350000000000000000e+03 0.000000000000000000e+00
1.351000000000000000e+03 0.000000000000000000e+00
1.352000000000000000e+03 0.000000000000000000e+00
1.353000000000000000e+03 0.000000000000000000e+00
1.354000000000000000e+03 0.000000000000000000e+00
1.355000000000000000e+03 0.000000000000000000e+00
1.356000000000000000e+03 0.000000000000000000e+00
1.357000000000000000e+03 0.000000000000000000e+00
1.358000000000000000e+03 0.000000000000000000e+00
1.359000000000000000e+03 0.000000000000000000e+00
1.360000000000000000e+03 0.000000000000000000e+00
1.361000000000000000e+03 0.000000000000000000e+00
1.362000000000000000e+03 0.000000000000000000e+00
1.363000000000000000e+03 0.000000000000000000e+00
1.364000000000000000e+03 0.000000000000000000e+00
1.365000000000000000e+03 0.000000000000000000e+00
1.366000000000000000e+03 0.000000000000000000e+00
1.367000000000000000e+03 0.000000000000000000e+00
1.368000000000000000e+03 0.000000000000000000e+00
1.369000000000000000e+03 0.000000000000000000e+00
1.370000000000000000e+03 0.000000000000000000e+00
1.371000000000000000e+03 0.000000000000000000e+00
1.372000000000000000e+03 0.000000000000000000e+00
1.373000000000000000e+03 0.000000000000000000e+00
1.374000000000000000e+03 0.000000000000000000e+00
1.375000000000000000e+03 0.000000000000000000e+00
1.376000000000000000e+03 0.000000000000000000e+00
1.377000000000000000e+03 0.000000000000000000e+00
1.378000000000000000e+03 0.000000000000000000e+00
1.379000000000000000e+03 0.000000000000000000e+00
1.380000000000000000e+03 0.000000000000000000e+00
1.381000000000000000e+03 0.000000000000000000e+00
1.382000000000000000e+03 0.000000000000000000e+00
1.383000000000000000e+03 0.000000000000000000e+00
1.384000000000000000e+03 0.000000000000000000e+00
1.385000000000000000e+03 0.000000000000000000e+00
1.386000000000000000e+03 0.000000000000000000e+00
1.387000000000000000e+03 0.000000000000000000e+00
1.388000000000000000e+03 0.000000000000000000e+00
1.389000000000000000e+03 0.000000000000000000e+00
1.390000000000000000e+03 0.000000000000000000e+00
1.391000000000000000e+03 0.000000000000000000e+00
1.392000000000000000e+03 0.000000000000000000e+00
1.393000000000000000e+03 0.000000000000000000e+00
1.394000000000000000e+03 0.000000000000000000e+00
1.395000000000000000e+03 0.000000000000000000e+00
1.396000000000000000e+03 0.000000000000000000e+00
1.397000000000000000e+03 0.000000000000000000e+00
1.398000000000000000e+03 0.000000000000000000e+00
1.399000000000000000e+03 0.000000000000000000e+00
1.400000000000000000e+03 0.000000000000000000e+00
1.401000000000000000e+03 0.000000000000000000e+00
1.402000000000000000e+03 0.000000000000000000e+00
1.403000000000000000e+03 0.000000000000000000e+00
1.404000000000000000e+03 0.000000000000000000e+00
1.405000000000000000e+03 0.000000000000000000e+00
1.406000000000000000e+03 0.000000000000000000e+00
1.407000000000000000e+03 0.000000000000000000e+00
1.408000000000000000e+03 0.000000000000000000e+00
1.409000000000000000e+03 0.000000000000000000e+00
1.410000000000000000e+03 0.000000000000000000e+00
1.411000000000000000e+03 0.000000000000000000e+00
1.412000000000000000e+03 0.000000000000000000e+00
1.413000000000000000e+03 0.000000000000000000e+00
1.414000000000000000e+03 0.000000000000000000e+00
1.415000000000000000e+03 0.000000000000000000e+00
1.416000000000000000e+03 0.000000000000000000e+00
1.417000000000000000e+03 0.000000000000000000e+00
1.418000000000000000e+03 0.000000000000000000e+00
1.419000000000000000e+03 0.000000000000000000e+00
1.420000000000000000e+03 0.000000000000000000e+00
1.421000000000000000e+03 0.000000000000000000e+00
1.422000000000000000e+03 0.000000000000000000e+00
1.423000000000000000e+03 0.000000000000000000e+00
1.424000000000000000e+03 0.000000000000000000e+00
1.425000000000000000e+03 0.000000000000000000e+00
1.426000000000000000e+03 0.000000000000000000e+00
1.427000000000000000e+03 0.000000000000000000e+00
1.428000000000000000e+03 0.000000000000000000e+00
1.429000000000000000e+03 0.000000000000000000e+00
1.430000000000000000e+03 0.000000000000000000e+00
1.431000000000000000e+03 0.000000000000000000e+00
1.432000000000000000e+03 0.000000000000000000e+00
1.433000000000000000e+03 0.000000000000000000e+00
1.434000000000000000e+03 0.000000000000000000e+00
1.435000000000000000e+03 0.000000000000000000e+00
1.436000000000000000e+03 0.000000000000000000e+00
1.437000000000000000e+03 0.000000000000000000e+00
1.438000000000000000e+03 0.000000000000000000e+00
1.439000000000000000e+03 0.000000000000000000e+00
1.440000000000000000e+03 0.000000000000000000e+00
1.441000000000000000e+03 0.000000000000000000e+00
1.442000000000000000e+03 0.000000000000000000e+00
1.443000000000000000e+03 0.000000000000000000e+00
1.444000000000000000e+03 0.000000000000000000e+00
1.445000000000000000e+03 0.000000000000000000e+00
1.446000000000000000e+03 0.000000000000000000e+00
1.447000000000000000e+03 0.000000000000000000e+00
1.448000000000000000e+03 0.000000000000000000e+00
1.449000000000000000e+03 0.000000000000000000e+00
1.450000000000000000e+03 0.000000000000000000e+00
1.451000000000000000e+03 0.000000000000000000e+00
1.452000000000000000e+03 0.000000000000000000e+00
1.453000000000000000e+03 0.000000000000000000e+00
1.454000000000000000e+03 0.000000000000000000e+00
1.455000000000000000e+03 0.000000000000000000e+00
1.456000000000000000e+03 0.000000000000000000e+00
1.457000000000000000e+03 0.000000000000000000e+00
1.458000000000000000e+03 0.000000000000000000e+00
1.459000000000000000e+03 0.000000000000000000e+00
1.460000000000000000e+03 0.000000000000000000e+00
1.461000000000000000e+03 0.000000000000000000e+00
1.462000000000000000e+03 0.000000000000000000e+00
1.463000000000000000e+03 0.000000000000000000e+00
1.464000000000000000e+03 0.000000000000000000e+00
1.465000000000000000e+03 0.000000000000000000e+00
1.466000000000000000e+03 0.000000000000000000e+00
1.467000000000000000e+03 0.000000000000000000e+00
1.468000000000000000e+03 0.000000000000000000e+00
1.469000000000000000e+03 0.000000000000000000e+00
1.470000000000000000e+03 0.000000000000000000e+00
1.471000000000000000e+03 0.000000000000000000e+00
1.472000000000000000e+03 0.000000000000000000e+00
1.473000000000000000e+03 0.000000000000000000e+00
1.474000000000000000e+03 0.000000000000000000e+00
1.475000000000000000e+03 0.000000000000000000e+00
1.476000000000000000e+03 0.000000000000000000e+00
1.477000000000000000e+03 0.000000000000000000e+00
1.478000000000000000e+03 0.000000000000000000e+00
1.479000000000000000e+03 0.000000000000000000e+00
1.480000000000000000e+03 0.000000000000000000e+00
1.481000000000000000e+03 0.000000000000000000e+00
1.482000000000000000e+03 0.000000000000000000e+00
1.483000000000000000e+03 0.000000000000000000e+00
1.484000000000000000e+03 0.000000000000000000e+00
1.485000000000000000e+03 0.000000000000000000e+00
1.486000000000000000e+03 0.000000000000000000e+00
1.487000000000000000e+03 0.000000000000000000e+00
1.488000000000000000e+03 0.000000000000000000e+00
1.489000000000000000e+03 0.000000000000000000e+00
1.490000000000000000e+03 0.000000000000000000e+00
1.491000000000000000e+03 0.000000000000000000e+00
1.492000000000000000e+03 0.000000000000000000e+00
1.493000000000000000e+03 0.000000000000000000e+00
1.494000000000000000e+03 0.000000000000000000e+00
1.495000000000000000e+03 0.000000000000000000e+00
1.496000000000000000e+03 0.000000000000000000e+00
1.497000000000000000e+03 0.000000000000000000e+00
1.498000000000000000e+03 0.000000000000000000e+00
1.499000000000000000e+03 0.000000000000000000e+00
1.500000000000000000e+03 0.000000000000000000e+00
