1.010000000000000000e+02 0.000000000000000000e+00
1.020000000000000000e+02 0.000000000000000000e+00
1.030000000000000000e+02 0.000000000000000000e+00
1.040000000000000000e+02 0.000000000000000000e+00
1.050000000000000000e+02 0.000000000000000000e+00
1.060000000000000000e+02 0.000000000000000000e+00
1.070000000000000000e+02 0.000000000000000000e+00
1.080000000000000000e+02 0.000000000000000000e+00
1.090000000000000000e+02 0.000000000000000000e+00
1.100000000000000000e+02 0.000000000000000000e+00
1.110000000000000000e+02 0.000000000000000000e+00
1.120000000000000000e+02 0.000000000000000000e+00
1.130000000000000000e+02 0.000000000000000000e+00
1.140000000000000000e+02 0.000000000000000000e+00
1.150000000000000000e+02 0.000000000000000000e+00
1.160000000000000000e+02 0.000000000000000000e+00
1.170000000000000000e+02 0.000000000000000000e+00
1.180000000000000000e+02 0.000000000000000000e+00
1.190000000000000000e+02 0.000000000000000000e+00
1.200000000000000000e+02 0.000000000000000000e+00
1.210000000000000000e+02 0.000000000000000000e+00
1.220000000000000000e+02 0.000000000000000000e+00
1.230000000000000000e+02 0.000000000000000000e+00
1.240000000000000000e+02 0.000000000000000000e+00
1.250000000000000000e+02 3.168702666943207791e-01
1.260000000000000000e+02 4.662150932171750028e+00
1.270000000000000000e+02 1.161848747355319311e+01
1.280000000000000000e+02 1.302356580792366891e+01
1.290000000000000000e+02 2.149504970130677961e+01
1.300000000000000000e+02 1.771598368311907379e+01
1.310000000000000000e+02 1.156186805164899489e+01
1.320000000000000000e+02 1.165555546981956070e+01
1.330000000000000000e+02 2.402394242845285532e+01
1.340000000000000000e+02 5.087838898983573444e+01
1.350000000000000000e+02 9.785429100809029990e+01
1.360000000000000000e+02 1.743647831605147189e+02
1.370000000000000000e+02 2.855948570006219711e+02
1.380000000000000000e+02 4.265769102260930481e+02
1.390000000000000000e+02 5.720497237245970155e+02
1.400000000000000000e+02 6.524760148102055837e+02
1.410000000000000000e+02 6.397886485376477594e+02
1.420000000000000000e+02 5.734250753370674829e+02
1.430000000000000000e+02 5.026615364862066144e+02
1.440000000000000000e+02 4.702465612321095136e+02
1.450000000000000000e+02 4.829737565028002564e+02
1.460000000000000000e+02 5.232998676208252391e+02
1.470000000000000000e+02 6.141821960174227115e+02
1.480000000000000000e+02 7.281525291848175812e+02
1.490000000000000000e+02 8.598157833851903433e+02
1.500000000000000000e+02 1.013171310475005043e+03
1.510000000000000000e+02 1.172391194565441310e+03
1.520000000000000000e+02 1.346135276498653184e+03
1.530000000000000000e+02 1.570932836341009988e+03
1.540000000000000000e+02 1.847190074673303798e+03
1.550000000000000000e+02 2.111446933001450816e+03
1.560000000000000000e+02 2.258405280796349871e+03
1.570000000000000000e+02 2.250822562746317089e+03
1.580000000000000000e+02 2.092371258867454344e+03
1.590000000000000000e+02 1.823520301182329376e+03
1.600000000000000000e+02 1.495129600290400504e+03
1.610000000000000000e+02 1.190329212818914357e+03
1.620000000000000000e+02 9.401085052063883722e+02
1.630000000000000000e+02 7.417231818917243800e+02
1.640000000000000000e+02 6.021179858743010982e+02
1.650000000000000000e+02 4.969431747770162247e+02
1.660000000000000000e+02 4.316006449076952549e+02
1.670000000000000000e+02 4.032207786558805083e+02
1.680000000000000000e+02 3.556873312383326038e+02
1.690000000000000000e+02 3.330116711678074353e+02
1.700000000000000000e+02 3.428197428660309356e+02
1.710000000000000000e+02 3.724346636175067147e+02
1.720000000000000000e+02 3.947548904791535165e+02
1.730000000000000000e+02 4.337691490667772314e+02
1.740000000000000000e+02 4.764961740925122626e+02
1.750000000000000000e+02 5.326403227546154540e+02
1.760000000000000000e+02 6.140676156781414647e+02
1.770000000000000000e+02 6.955142589296817732e+02
1.780000000000000000e+02 7.412927078406972896e+02
1.790000000000000000e+02 7.192791726669429409e+02
1.800000000000000000e+02 6.288155731176107111e+02
1.810000000000000000e+02 5.225056750466716267e+02
1.820000000000000000e+02 4.260019151213431883e+02
1.830000000000000000e+02 3.478702000622274113e+02
1.840000000000000000e+02 2.932577584733457456e+02
1.850000000000000000e+02 2.588881599045843132e+02
1.860000000000000000e+02 2.373696116365899798e+02
1.870000000000000000e+02 2.239141988384151887e+02
1.880000000000000000e+02 2.169161688446380367e+02
1.890000000000000000e+02 2.181288331259074482e+02
1.900000000000000000e+02 2.346040288736774357e+02
1.910000000000000000e+02 2.554040080896081406e+02
1.920000000000000000e+02 2.846315414229414387e+02
1.930000000000000000e+02 3.303280115304850142e+02
1.940000000000000000e+02 3.880231350549671561e+02
1.950000000000000000e+02 4.595150725575616093e+02
1.960000000000000000e+02 5.390427228998136115e+02
1.970000000000000000e+02 6.208257445965565466e+02
1.980000000000000000e+02 6.891610041070315447e+02
1.990000000000000000e+02 6.832602442231896021e+02
2.000000000000000000e+02 5.883764532047283637e+02
2.010000000000000000e+02 4.403100644472099816e+02
2.020000000000000000e+02 3.084062166148110578e+02
2.030000000000000000e+02 2.315830566065128835e+02
2.040000000000000000e+02 1.616309235843178840e+02
2.050000000000000000e+02 1.084823577473552803e+02
2.060000000000000000e+02 8.694264503422536450e+01
2.070000000000000000e+02 6.328814940883657414e+01
2.080000000000000000e+02 4.835047736569165266e+01
2.090000000000000000e+02 3.592014424393273941e+01
2.100000000000000000e+02 2.311192404396517830e+01
2.110000000000000000e+02 1.314374127691364080e+01
2.120000000000000000e+02 3.745658366106802362e+00
2.130000000000000000e+02 1.105176917254250135e+01
2.140000000000000000e+02 1.115221686372121646e+01
2.150000000000000000e+02 1.503755147272346804e+01
2.160000000000000000e+02 2.021716921609291617e+01
2.170000000000000000e+02 1.690535316531834198e+01
2.180000000000000000e+02 1.233611782825139791e+01
2.190000000000000000e+02 1.184894385317295828e+01
2.200000000000000000e+02 1.152329070317361293e+01
2.210000000000000000e+02 1.561677160547610299e+01
2.220000000000000000e+02 6.036812661273584624e+00
2.230000000000000000e+02 6.016612717486039763e+00
2.240000000000000000e+02 3.576984201203028402e+00
2.250000000000000000e+02 4.404554068865337513e+00
2.260000000000000000e+02 3.974298223812540609e+00
2.270000000000000000e+02 8.644367660099554485e+00
2.280000000000000000e+02 2.371529884256445619e+00
2.290000000000000000e+02 4.775366105579761822e+00
2.300000000000000000e+02 8.176768879303201842e+00
2.310000000000000000e+02 6.710846898776190450e+00
2.320000000000000000e+02 1.764211653391445811e+00
2.330000000000000000e+02 4.967481103691502753e+00
2.340000000000000000e+02 2.107061579340399859e+01
2.350000000000000000e+02 2.803898001451981159e+01
2.360000000000000000e+02 2.963269508193319979e+01
2.370000000000000000e+02 3.592431377100163559e+01
2.380000000000000000e+02 5.743874217589732467e+01
2.390000000000000000e+02 6.987788323169469606e+01
2.400000000000000000e+02 8.300459054967843997e+01
2.410000000000000000e+02 9.978960398257612496e+01
2.420000000000000000e+02 1.140627640323586434e+02
2.430000000000000000e+02 1.402142319435803586e+02
2.440000000000000000e+02 1.766590061605475910e+02
2.450000000000000000e+02 2.082771693009746912e+02
2.460000000000000000e+02 2.324598233976356312e+02
2.470000000000000000e+02 2.808737137938192063e+02
2.480000000000000000e+02 3.486336850238540137e+02
2.490000000000000000e+02 4.137790918689065620e+02
2.500000000000000000e+02 4.821168694732468794e+02
2.510000000000000000e+02 5.798290887990051488e+02
2.520000000000000000e+02 6.768864780958310803e+02
2.530000000000000000e+02 8.001156798423886585e+02
2.540000000000000000e+02 9.412598219456529023e+02
2.550000000000000000e+02 1.087964327317985635e+03
2.560000000000000000e+02 1.256342074865201994e+03
2.570000000000000000e+02 1.348243465048744838e+03
2.580000000000000000e+02 1.349865160755030274e+03
2.590000000000000000e+02 1.299497944421401598e+03
2.600000000000000000e+02 1.252966550715619178e+03
2.610000000000000000e+02 1.278210101223812444e+03
2.620000000000000000e+02 1.346389782825141765e+03
2.630000000000000000e+02 1.432153663762706174e+03
2.640000000000000000e+02 1.519665857498444893e+03
2.650000000000000000e+02 1.582594868699439758e+03
2.660000000000000000e+02 1.567558006222773884e+03
2.670000000000000000e+02 1.476809970960379360e+03
2.680000000000000000e+02 1.327537419000210548e+03
2.690000000000000000e+02 1.166096904791540283e+03
2.700000000000000000e+02 1.089125616262186213e+03
2.710000000000000000e+02 1.037047708151836332e+03
2.720000000000000000e+02 9.908944926363832337e+02
2.730000000000000000e+02 9.681020799004356832e+02
2.740000000000000000e+02 1.000322724331051518e+03
2.750000000000000000e+02 1.053808050404479900e+03
2.760000000000000000e+02 1.149745707590210031e+03
2.770000000000000000e+02 1.287558727649866341e+03
2.780000000000000000e+02 1.452513820784070049e+03
2.790000000000000000e+02 1.648040918498548990e+03
2.800000000000000000e+02 1.862507959344537994e+03
2.810000000000000000e+02 2.100556679800911752e+03
2.820000000000000000e+02 2.338533117195596787e+03
2.830000000000000000e+02 2.523867039825765460e+03
2.840000000000000000e+02 2.593347973869763337e+03
2.850000000000000000e+02 2.535912280232319063e+03
2.860000000000000000e+02 2.330266964115335213e+03
2.870000000000000000e+02 1.979422339278310574e+03
2.880000000000000000e+02 1.589448888612324936e+03
2.890000000000000000e+02 1.234707936942547576e+03
2.900000000000000000e+02 9.593474168844628593e+02
2.910000000000000000e+02 7.523693654428542459e+02
2.920000000000000000e+02 5.751040159925335047e+02
2.930000000000000000e+02 4.602986505911624704e+02
2.940000000000000000e+02 3.788846463596758554e+02
2.950000000000000000e+02 3.159722410288320589e+02
2.960000000000000000e+02 2.654880760423138213e+02
2.970000000000000000e+02 2.222638462974480262e+02
2.980000000000000000e+02 1.920042609002278766e+02
2.990000000000000000e+02 1.671317977598015148e+02
3.000000000000000000e+02 1.440563362165520402e+02
3.010000000000000000e+02 1.209119766023641631e+02
3.020000000000000000e+02 8.702422477909206577e+01
3.030000000000000000e+02 8.120223647583489424e+01
3.040000000000000000e+02 7.026842835752870542e+01
3.050000000000000000e+02 4.537209154947120027e+01
3.060000000000000000e+02 3.195356181705058773e+01
3.070000000000000000e+02 1.917200689962683313e+01
3.080000000000000000e+02 1.261943418377929937e+01
3.090000000000000000e+02 5.053805734702422114e+00
3.100000000000000000e+02 3.020916425134789751e+00
3.110000000000000000e+02 5.658053833229690355e+00
3.120000000000000000e+02 1.431745868699411339e+00
3.130000000000000000e+02 2.911127305060152270e+00
3.140000000000000000e+02 6.317495798382201322e+00
3.150000000000000000e+02 1.199345673304296334e+01
3.160000000000000000e+02 4.097806125699830382e+00
3.170000000000000000e+02 7.427032021779643500e+00
3.180000000000000000e+02 5.632159415681397441e+00
3.190000000000000000e+02 6.442099976975731224e+00
3.200000000000000000e+02 1.036136744119448494e+01
3.210000000000000000e+02 3.035850515660640880e+01
3.220000000000000000e+02 3.666727064716865669e+01
3.230000000000000000e+02 3.900530680149336149e+01
3.240000000000000000e+02 5.383953221530760658e+01
3.250000000000000000e+02 8.328016227131301719e+01
3.260000000000000000e+02 1.077877324745902285e+02
3.270000000000000000e+02 1.287673651939429647e+02
3.280000000000000000e+02 1.535727196639703891e+02
3.290000000000000000e+02 1.875633090852521434e+02
3.300000000000000000e+02 2.289682275819162385e+02
3.310000000000000000e+02 2.463391967019289552e+02
3.320000000000000000e+02 2.253916242895658684e+02
3.330000000000000000e+02 1.804007187059312116e+02
3.340000000000000000e+02 1.441528628500301750e+02
3.350000000000000000e+02 1.104565710640938647e+02
3.360000000000000000e+02 7.525597999999999388e+01
3.370000000000000000e+02 4.405829521676059812e+01
3.380000000000000000e+02 2.664943167392675960e+01
3.390000000000000000e+02 2.904512200331812366e+01
3.400000000000000000e+02 1.637465224434786748e+01
3.410000000000000000e+02 5.150600797345093795e+00
3.420000000000000000e+02 6.833227320613848299e-01
3.430000000000000000e+02 2.894611915370270072e+00
3.440000000000000000e+02 8.020745285210613140e-01
3.450000000000000000e+02 4.771109149139218353e+00
3.460000000000000000e+02 2.859467866210358089e+00
3.470000000000000000e+02 7.466729185438707894e+00
3.480000000000000000e+02 5.697875747355420906e+00
3.490000000000000000e+02 1.596675419207650748e+01
3.500000000000000000e+02 2.980530041683936915e+01
3.510000000000000000e+02 3.170216969508397042e+01
3.520000000000000000e+02 2.880562854387064320e+01
3.530000000000000000e+02 3.733612683882996919e+01
3.540000000000000000e+02 4.704328114084195533e+01
3.550000000000000000e+02 5.502450192906017890e+01
3.560000000000000000e+02 5.294835851690525885e+01
3.570000000000000000e+02 4.628687631611692410e+01
3.580000000000000000e+02 5.104934128992121600e+01
3.590000000000000000e+02 4.678142414436837271e+01
3.600000000000000000e+02 3.881900253474385210e+01
3.610000000000000000e+02 3.166173102032351494e+01
3.620000000000000000e+02 3.281554263223411994e+01
3.630000000000000000e+02 4.762748400331888377e+01
3.640000000000000000e+02 5.064493925756949011e+01
3.650000000000000000e+02 5.950435284173436656e+01
3.660000000000000000e+02 6.924484580584947935e+01
3.670000000000000000e+02 7.766409484861031842e+01
3.680000000000000000e+02 1.005823707985900057e+02
3.690000000000000000e+02 1.210058921385609096e+02
3.700000000000000000e+02 1.407387061190621864e+02
3.710000000000000000e+02 1.560254309271932982e+02
3.720000000000000000e+02 1.622481933623731436e+02
3.730000000000000000e+02 1.461385644264676955e+02
3.740000000000000000e+02 1.082865713918279056e+02
3.750000000000000000e+02 6.909239685749902549e+01
3.760000000000000000e+02 4.409580285625384732e+01
3.770000000000000000e+02 3.304735450528939822e+01
3.780000000000000000e+02 1.365431693217189846e+01
3.790000000000000000e+02 1.181362061328968593e+00
3.800000000000000000e+02 2.175866410703176435e+00
3.810000000000000000e+02 2.833459505496788822e+00
3.820000000000000000e+02 1.130696593528323390e+01
3.830000000000000000e+02 8.268127641566112018e-01
3.840000000000000000e+02 2.623739716300343972e+00
3.850000000000000000e+02 6.938153827006862784e+00
3.860000000000000000e+02 4.754903716448741768e+00
3.870000000000000000e+02 2.169403368104585006e+00
3.880000000000000000e+02 1.265457026965340503e+01
3.890000000000000000e+02 1.516701245177356938e+01
3.900000000000000000e+02 1.297575285358771069e+01
3.910000000000000000e+02 1.811311475005171445e+01
3.920000000000000000e+02 3.385081972827191521e+01
3.930000000000000000e+02 3.689231918498547458e+01
3.940000000000000000e+02 6.107080756689477852e+01
3.950000000000000000e+02 8.140647765608788688e+01
3.960000000000000000e+02 8.914467192451277811e+01
3.970000000000000000e+02 1.165040660029041391e+02
3.980000000000000000e+02 1.401771183571873394e+02
3.990000000000000000e+02 1.678660462352215461e+02
4.000000000000000000e+02 1.958818280232320603e+02
4.010000000000000000e+02 2.275478365069493236e+02
4.020000000000000000e+02 2.745693163866416739e+02
4.030000000000000000e+02 2.654174893590534339e+02
4.040000000000000000e+02 2.330213045218827403e+02
4.050000000000000000e+02 2.001771218626846576e+02
4.060000000000000000e+02 1.711960298900650059e+02
4.070000000000000000e+02 1.438002942750463831e+02
4.080000000000000000e+02 1.391572717485998396e+02
4.090000000000000000e+02 1.553231363824929190e+02
4.100000000000000000e+02 1.757596306990247399e+02
4.110000000000000000e+02 1.885348287077369775e+02
4.120000000000000000e+02 1.926567266957064248e+02
4.130000000000000000e+02 1.602545473247618304e+02
4.140000000000000000e+02 1.068088439970955932e+02
4.150000000000000000e+02 5.977712322754607754e+01
4.160000000000000000e+02 3.419987982787211678e+01
4.170000000000000000e+02 2.000289996266312542e+01
4.180000000000000000e+02 4.915772718315527534e+00
4.190000000000000000e+02 1.260907545914530381e+01
4.200000000000000000e+02 2.138688941505910535e+01
4.210000000000000000e+02 1.925227303815844593e+01
4.220000000000000000e+02 2.198312645924080044e+01
4.230000000000000000e+02 1.098095017423802133e+01
4.240000000000000000e+02 1.644357439535361820e+01
4.250000000000000000e+02 2.351948303671443696e+01
4.260000000000000000e+02 1.645727838830127965e+01
4.270000000000000000e+02 9.333067063472263669e+00
4.280000000000000000e+02 8.492839943995018626e-01
4.290000000000000000e+02 5.115165056004890687e+00
4.300000000000000000e+02 8.440758602364489604e+00
4.310000000000000000e+02 2.509933059738688854e+00
4.320000000000000000e+02 5.757809140012476234e+00
4.330000000000000000e+02 2.927997180460549487e+01
4.340000000000000000e+02 3.830992323584315074e+01
4.350000000000000000e+02 4.347525421281905977e+01
4.360000000000000000e+02 6.014823496577434270e+01
4.370000000000000000e+02 7.665987882597023884e+01
4.380000000000000000e+02 1.250309186851937255e+02
4.390000000000000000e+02 1.637327867040027911e+02
4.400000000000000000e+02 1.978672579340376672e+02
4.410000000000000000e+02 2.437799712152622362e+02
4.420000000000000000e+02 3.049166419415053610e+02
4.430000000000000000e+02 3.784211792574143374e+02
4.440000000000000000e+02 4.734965702820400111e+02
4.450000000000000000e+02 5.761614963285626345e+02
4.460000000000000000e+02 6.765285987969296002e+02
4.470000000000000000e+02 7.826699403981759815e+02
4.480000000000000000e+02 9.299317153287714746e+02
4.490000000000000000e+02 1.087720788425638375e+03
4.500000000000000000e+02 1.267670874740775844e+03
4.510000000000000000e+02 1.462374273387267294e+03
4.520000000000000000e+02 1.627037389545738961e+03
4.530000000000000000e+02 1.731744373159095176e+03
4.540000000000000000e+02 1.692665510267575883e+03
4.550000000000000000e+02 1.512176553827001499e+03
4.560000000000000000e+02 1.255057231487247464e+03
4.570000000000000000e+02 1.006276594648418040e+03
4.580000000000000000e+02 8.138355309894255925e+02
4.590000000000000000e+02 7.075939643434977597e+02
4.600000000000000000e+02 6.415604918689076612e+02
4.610000000000000000e+02 5.931675753785528968e+02
4.620000000000000000e+02 5.821805423563577051e+02
4.630000000000000000e+02 6.519489715619163235e+02
4.640000000000000000e+02 6.967896401783858664e+02
4.650000000000000000e+02 7.540727127152050571e+02
4.660000000000000000e+02 8.354982814353871845e+02
4.670000000000000000e+02 9.317509104728334250e+02
4.680000000000000000e+02 1.069213199128814267e+03
4.690000000000000000e+02 1.229163931134621635e+03
4.700000000000000000e+02 1.414472358357526900e+03
4.710000000000000000e+02 1.620121917651939384e+03
4.720000000000000000e+02 1.833199338518984177e+03
4.730000000000000000e+02 2.042752709664039230e+03
4.740000000000000000e+02 2.189419684920138934e+03
4.750000000000000000e+02 2.214417975316324828e+03
4.760000000000000000e+02 2.085738941103277284e+03
4.770000000000000000e+02 1.832167970130681397e+03
4.780000000000000000e+02 1.563291772661277491e+03
4.790000000000000000e+02 1.351220705247873411e+03
4.800000000000000000e+02 1.176007541796308260e+03
4.810000000000000000e+02 1.077452686372122344e+03
4.820000000000000000e+02 1.049296835096452696e+03
4.830000000000000000e+02 1.017869437461107395e+03
4.840000000000000000e+02 9.531442516697779865e+02
4.850000000000000000e+02 8.250307284588229777e+02
4.860000000000000000e+02 6.707159639079006865e+02
4.870000000000000000e+02 5.369056169881757796e+02
4.880000000000000000e+02 4.508326028624754827e+02
4.890000000000000000e+02 3.885361690935478123e+02
4.900000000000000000e+02 3.597260599253263536e+02
4.910000000000000000e+02 3.467465293714999461e+02
4.920000000000000000e+02 3.416110622978017091e+02
4.930000000000000000e+02 3.494514014104956345e+02
4.940000000000000000e+02 3.809232591371078911e+02
4.950000000000000000e+02 4.427747834715878525e+02
4.960000000000000000e+02 5.248559506533916874e+02
4.970000000000000000e+02 6.206690182742166826e+02
4.980000000000000000e+02 7.445260751140613138e+02
4.990000000000000000e+02 9.238877760838023505e+02
5.000000000000000000e+02 1.139581543870567657e+03
5.010000000000000000e+02 1.356998034425553669e+03
5.020000000000000000e+02 1.622675474590340173e+03
5.030000000000000000e+02 1.958556084837175831e+03
5.040000000000000000e+02 2.331675581086677994e+03
5.050000000000000000e+02 2.720622853764767569e+03
5.060000000000000000e+02 3.180760049159937353e+03
5.070000000000000000e+02 3.718814705662717643e+03
5.080000000000000000e+02 4.307656093756470000e+03
5.090000000000000000e+02 4.919935330429355417e+03
5.100000000000000000e+02 5.581648484754196943e+03
5.110000000000000000e+02 6.161497354698190975e+03
5.120000000000000000e+02 6.440789230657538610e+03
5.130000000000000000e+02 6.297515512134417804e+03
5.140000000000000000e+02 5.725007675171140363e+03
5.150000000000000000e+02 4.813268942128183880e+03
5.160000000000000000e+02 3.857100732005804275e+03
5.170000000000000000e+02 2.999729679527066764e+03
5.180000000000000000e+02 2.318608116549149145e+03
5.190000000000000000e+02 1.826831682638450275e+03
5.200000000000000000e+02 1.465988702551335791e+03
5.210000000000000000e+02 1.186651540024885207e+03
5.220000000000000000e+02 9.689108253474358889e+02
5.230000000000000000e+02 8.045853584940879273e+02
5.240000000000000000e+02 6.742857042513473971e+02
5.250000000000000000e+02 5.592296649035461087e+02
5.260000000000000000e+02 4.791104020120307609e+02
5.270000000000000000e+02 4.198172842389046764e+02
5.280000000000000000e+02 3.660395581829493494e+02
5.290000000000000000e+02 3.157466462559636966e+02
5.300000000000000000e+02 2.693573577975939770e+02
5.310000000000000000e+02 2.231790071147066215e+02
5.320000000000000000e+02 1.899147589919105314e+02
5.330000000000000000e+02 1.614611792781578856e+02
5.340000000000000000e+02 1.398826519186891062e+02
5.350000000000000000e+02 1.236071030906452961e+02
5.360000000000000000e+02 1.098217629952291787e+02
5.370000000000000000e+02 1.048077482887368603e+02
5.380000000000000000e+02 8.281946823065800345e+01
5.390000000000000000e+02 6.147644087948560809e+01
5.400000000000000000e+02 5.011908584526040755e+01
5.410000000000000000e+02 4.264224072806491250e+01
5.420000000000000000e+02 3.197343388301187161e+01
5.430000000000000000e+02 2.953708667496371021e+01
5.440000000000000000e+02 1.923608010578754346e+01
5.450000000000000000e+02 2.371958975316306351e+01
5.460000000000000000e+02 3.399562428126979086e+01
5.470000000000000000e+02 4.672514133762160071e+00
5.480000000000000000e+02 1.535973165110979810e+00
5.490000000000000000e+02 1.567668759386007249e+00
5.500000000000000000e+02 7.533433880111073400e-01
5.510000000000000000e+02 3.060604032980708045e+00
5.520000000000000000e+02 4.674984053308306464e+00
5.530000000000000000e+02 1.059382124056403462e+01
5.540000000000000000e+02 5.372875978427904542e+00
5.550000000000000000e+02 4.911977205351270470e+00
5.560000000000000000e+02 4.765594639983576464e+00
5.570000000000000000e+02 5.149073913918062573e+00
5.580000000000000000e+02 6.774345736776681726e+00
5.590000000000000000e+02 1.618497046255968286e+01
5.600000000000000000e+02 4.798839601741962113e+00
5.610000000000000000e+02 1.462854477079461901e+01
5.620000000000000000e+02 1.034361082596979742e+01
5.630000000000000000e+02 1.546819390168010955e+01
5.640000000000000000e+02 4.890295643434935613e+00
5.650000000000000000e+02 1.852059198506564419e+00
5.660000000000000000e+02 6.220339738228768844e+00
5.670000000000000000e+02 7.730771919103843537e+00
5.680000000000000000e+02 2.393726467123216572e+00
5.690000000000000000e+02 2.923230306782715449e+00
5.700000000000000000e+02 3.950706801492172016e-01
5.710000000000000000e+02 6.074318387678603770e+00
5.720000000000000000e+02 1.426780555693806285e+01
5.730000000000000000e+02 2.266936381999127903e+01
5.740000000000000000e+02 2.990092048537659508e+01
5.750000000000000000e+02 2.860101210329779420e+01
5.760000000000000000e+02 5.027146987349610896e+01
5.770000000000000000e+02 6.661291499274008743e+01
5.780000000000000000e+02 7.435310808338518029e+01
5.790000000000000000e+02 8.404382965989232446e+01
5.800000000000000000e+02 1.023186913130059992e+02
5.810000000000000000e+02 1.185914241651112349e+02
5.820000000000000000e+02 1.243783110949812283e+02
5.830000000000000000e+02 1.279805393901681896e+02
5.840000000000000000e+02 1.207480548226502606e+02
5.850000000000000000e+02 9.977494487658259459e+01
5.860000000000000000e+02 7.877876633478607005e+01
5.870000000000000000e+02 6.351549230194837747e+01
5.880000000000000000e+02 3.659963897324272608e+01
5.890000000000000000e+02 2.311710714167181990e+01
5.900000000000000000e+02 1.531307464122818907e+01
5.910000000000000000e+02 2.432720685957235673e+00
5.920000000000000000e+02 9.564821672620051896e-01
5.930000000000000000e+02 2.004674156366662352e+00
5.940000000000000000e+02 1.359875440365031718e+00
5.950000000000000000e+02 4.855977447210258369e+00
5.960000000000000000e+02 5.551536219410744266e+00
5.970000000000000000e+02 7.537164060361337903e+00
5.980000000000000000e+02 7.941597846919791870e+00
5.990000000000000000e+02 7.188421661896018833e+00
6.000000000000000000e+02 1.417609406470355493e+00
6.010000000000000000e+02 1.234650447002441975e+00
6.020000000000000000e+02 6.540288060983288076e+00
6.030000000000000000e+02 3.598678421609285749e+00
6.040000000000000000e+02 6.392427267786723988e+00
6.050000000000000000e+02 1.022540761605472959e+01
6.060000000000000000e+02 8.648873900041472496e+00
6.070000000000000000e+02 2.369615058493996784e+00
6.080000000000000000e+02 1.869329418585368607e+00
6.090000000000000000e+02 1.386125205786013659e+01
6.100000000000000000e+02 1.453921912881138567e+01
6.110000000000000000e+02 1.642934115743634393e+01
6.120000000000000000e+02 1.604762713396909746e+01
6.130000000000000000e+02 2.096863635967768502e+01
6.140000000000000000e+02 4.139418068243121240e+01
6.150000000000000000e+02 4.091078229827871127e+01
6.160000000000000000e+02 2.943525894212845273e+01
6.170000000000000000e+02 3.189582863721262029e+01
6.180000000000000000e+02 4.275114579547798144e+01
6.190000000000000000e+02 4.868403178801077047e+01
6.200000000000000000e+02 5.423317019912855841e+01
6.210000000000000000e+02 7.511185924704427919e+01
6.220000000000000000e+02 8.053949062227752620e+01
6.230000000000000000e+02 8.077298326488279656e+01
6.240000000000000000e+02 8.789511595934484944e+01
6.250000000000000000e+02 9.976292001866858072e+01
6.260000000000000000e+02 1.036974221070096718e+02
6.270000000000000000e+02 1.102680372744246426e+02
6.280000000000000000e+02 1.164923646753787665e+02
6.290000000000000000e+02 1.258757985897970428e+02
6.300000000000000000e+02 1.358328869943997574e+02
6.310000000000000000e+02 1.399577637419621396e+02
6.320000000000000000e+02 1.352239324139361258e+02
6.330000000000000000e+02 1.427134987761872367e+02
6.340000000000000000e+02 1.530479898568763701e+02
6.350000000000000000e+02 1.651954129821654931e+02
6.360000000000000000e+02 1.756314924082140578e+02
6.370000000000000000e+02 1.826708803982575944e+02
6.380000000000000000e+02 1.964478895271673764e+02
6.390000000000000000e+02 1.963365005600497284e+02
6.400000000000000000e+02 2.111875129226303898e+02
6.410000000000000000e+02 2.234296479153704240e+02
6.420000000000000000e+02 2.377415472308655353e+02
6.430000000000000000e+02 2.677188230242690565e+02
6.440000000000000000e+02 2.870154398879903397e+02
6.450000000000000000e+02 2.904773209292677620e+02
6.460000000000000000e+02 2.898565625803774992e+02
6.470000000000000000e+02 3.088884169052071798e+02
6.480000000000000000e+02 3.289626393901680217e+02
6.490000000000000000e+02 3.280012544285418130e+02
6.500000000000000000e+02 3.493565967641566772e+02
6.510000000000000000e+02 3.486476544700270210e+02
6.520000000000000000e+02 3.501622840074672922e+02
6.530000000000000000e+02 3.403121923459860341e+02
6.540000000000000000e+02 3.249314015142086873e+02
6.550000000000000000e+02 3.195969477602655502e+02
6.560000000000000000e+02 2.739478905413810708e+02
6.570000000000000000e+02 2.363153484754200804e+02
6.580000000000000000e+02 2.199001377851514007e+02
6.590000000000000000e+02 1.987099382908108680e+02
6.600000000000000000e+02 1.723694051856462011e+02
6.610000000000000000e+02 1.586105171920364967e+02
6.620000000000000000e+02 1.367829898568761564e+02
6.630000000000000000e+02 1.143263339970962278e+02
6.640000000000000000e+02 9.790259885524676520e+01
6.650000000000000000e+02 8.957364315909563857e+01
6.660000000000000000e+02 8.450772401369017928e+01
6.670000000000000000e+02 7.538262168637209015e+01
6.680000000000000000e+02 5.643523482472510011e+01
6.690000000000000000e+02 5.390753680008302950e+01
6.700000000000000000e+02 3.922966467952711156e+01
6.710000000000000000e+02 2.877755387678902821e+01
6.720000000000000000e+02 2.892700180008299427e+01
6.730000000000000000e+02 2.504889289981333533e+01
6.740000000000000000e+02 2.401458055382697410e+01
6.750000000000000000e+02 3.546949724595595654e+01
6.760000000000000000e+02 2.415802882389569106e+01
6.770000000000000000e+02 8.802289728272349123e+00
6.780000000000000000e+02 1.151490004147648172e+01
6.790000000000000000e+02 2.705754938601937809e+01
6.800000000000000000e+02 2.035242171126322219e+01
6.810000000000000000e+02 2.088648562538889664e+01
6.820000000000000000e+02 4.171069670607765012e+00
6.830000000000000000e+02 4.284869318191246279e+00
6.840000000000000000e+02 7.479981497614485164e+00
6.850000000000000000e+02 9.737672489109883145e+00
6.860000000000000000e+02 3.888583895457589978e+00
6.870000000000000000e+02 7.586671626633442855e+00
6.880000000000000000e+02 1.406704695083987744e+01
6.890000000000000000e+02 4.848882280647781151e+00
6.900000000000000000e+02 7.111342653391611535e+00
6.910000000000000000e+02 6.349739291640563721e+00
6.920000000000000000e+02 6.901612808548622802e-01
6.930000000000000000e+02 1.149872032980679082e+00
6.940000000000000000e+02 4.963992691350274100e+00
6.950000000000000000e+02 2.402285767316126197e+00
6.960000000000000000e+02 6.557384552997345573e+00
6.970000000000000000e+02 9.088761841111795192e+00
6.980000000000000000e+02 8.002874031729570348e+00
6.990000000000000000e+02 9.308235998755515439e+00
7.000000000000000000e+02 1.594466479568562711e+01
7.010000000000000000e+02 6.082471972626188439e+00
7.020000000000000000e+02 1.640274400539541766e+00
7.030000000000000000e+02 3.933476467952632838e+00
7.040000000000000000e+02 1.197273261924421961e+00
7.050000000000000000e+02 4.954861173407748787e+00
7.060000000000000000e+02 5.591688489110203442e+00
7.070000000000000000e+02 1.615541857498409328e+01
7.080000000000000000e+02 1.826268240199172865e+01
7.090000000000000000e+02 1.474180234391151245e+01
7.100000000000000000e+02 2.668767727027593395e+01
7.110000000000000000e+02 1.894792065753996013e+01
7.120000000000000000e+02 2.264940532047289068e+01
7.130000000000000000e+02 1.546336192283742683e+01
7.140000000000000000e+02 2.921580078406855296e+00
7.150000000000000000e+02 1.904567573532454094e+00
7.160000000000000000e+02 1.239893871561958782e+01
7.170000000000000000e+02 2.276060878033624491e+01
7.180000000000000000e+02 2.183588839037530605e+01
7.190000000000000000e+02 9.890514952500176094e+00
7.200000000000000000e+02 6.847202888612482496e+00
7.210000000000000000e+02 1.269247004355067254e+01
7.220000000000000000e+02 2.272489294959447292e+01
7.230000000000000000e+02 4.427779023231667566e+01
7.240000000000000000e+02 4.449454133554559832e+01
7.250000000000000000e+02 3.804909390582872675e+01
7.260000000000000000e+02 4.344869450528911159e+01
7.270000000000000000e+02 4.512889944421408472e+01
7.280000000000000000e+02 4.659124482679949608e+01
7.290000000000000000e+02 7.028547291018466581e+01
7.300000000000000000e+02 8.751254347158887015e+01
7.310000000000000000e+02 1.033896399875548440e+02
7.320000000000000000e+02 1.173214255341218575e+02
7.330000000000000000e+02 1.369396504355050297e+02
7.340000000000000000e+02 1.611774509230459671e+02
7.350000000000000000e+02 1.897867767268217847e+02
7.360000000000000000e+02 2.355749021157423044e+02
7.370000000000000000e+02 2.611300575191880284e+02
7.380000000000000000e+02 3.000012500207400308e+02
7.390000000000000000e+02 3.401245600912665168e+02
7.400000000000000000e+02 3.842154013065111258e+02
7.410000000000000000e+02 4.377793070939638937e+02
7.420000000000000000e+02 4.919465231072391020e+02
7.430000000000000000e+02 5.567372526337629779e+02
7.440000000000000000e+02 6.428365884256396612e+02
7.450000000000000000e+02 7.108498192906047279e+02
7.460000000000000000e+02 7.753186055578628384e+02
7.470000000000000000e+02 8.400304901680174225e+02
7.480000000000000000e+02 8.764291054138150230e+02
7.490000000000000000e+02 8.710135755652380567e+02
7.500000000000000000e+02 7.945118456129393962e+02
7.510000000000000000e+02 6.864601760265409212e+02
7.520000000000000000e+02 5.881571773491000386e+02
7.530000000000000000e+02 5.004405663970156866e+02
7.540000000000000000e+02 4.093656328909130480e+02
7.550000000000000000e+02 3.295121302426886132e+02
7.560000000000000000e+02 2.909089192906038193e+02
7.570000000000000000e+02 2.453889071339688712e+02
7.580000000000000000e+02 2.178000747355318083e+02
7.590000000000000000e+02 1.992666830118229768e+02
7.600000000000000000e+02 1.778191895893812102e+02
7.610000000000000000e+02 1.567377611076532560e+02
7.620000000000000000e+02 1.363125413399706929e+02
7.630000000000000000e+02 1.280298279610038890e+02
7.640000000000000000e+02 1.334555310516491886e+02
7.650000000000000000e+02 1.306472153495123223e+02
7.660000000000000000e+02 1.202784291018463847e+02
7.670000000000000000e+02 1.102808530387883366e+02
7.680000000000000000e+02 9.724731877411301184e+01
7.690000000000000000e+02 8.262569005600512639e+01
7.700000000000000000e+02 7.645937089400545972e+01
7.710000000000000000e+02 6.699864596971599440e+01
7.720000000000000000e+02 5.358982716241428079e+01
7.730000000000000000e+02 5.573653690105800251e+01
7.740000000000000000e+02 6.852111097490147529e+01
7.750000000000000000e+02 4.017806290811030578e+01
7.760000000000000000e+02 4.378289166977793201e+01
7.770000000000000000e+02 2.617087079220221923e+01
7.780000000000000000e+02 2.043579907280658503e+01
7.790000000000000000e+02 1.376398048537627439e+01
7.800000000000000000e+02 8.583771747822773079e+00
7.810000000000000000e+02 2.681240903339558201e+01
7.820000000000000000e+02 1.667082232731793212e+01
7.830000000000000000e+02 1.579039462878478695e+01
7.840000000000000000e+02 2.618020097282737169e+01
7.850000000000000000e+02 3.494805944202448700e+01
7.860000000000000000e+02 3.483832163832429529e+01
7.870000000000000000e+02 2.782271574984440576e+01
7.880000000000000000e+02 2.094710395146237758e+01
7.890000000000000000e+02 3.934748126944627700e+01
7.900000000000000000e+02 4.123055668326075107e+01
7.910000000000000000e+02 5.370701085874289049e+01
7.920000000000000000e+02 6.279621550715618383e+01
7.930000000000000000e+02 7.015843577680978171e+01
7.940000000000000000e+02 7.572524128189195380e+01
7.950000000000000000e+02 5.869581043352003746e+01
7.960000000000000000e+02 9.053132945239562446e+01
7.970000000000000000e+02 9.529309928645514560e+01
7.980000000000000000e+02 1.119092287699647841e+02
7.990000000000000000e+02 1.296688726820160866e+02
8.000000000000000000e+02 1.497833204729303986e+02
8.010000000000000000e+02 1.932457868077161152e+02
8.020000000000000000e+02 2.449634950425221120e+02
8.030000000000000000e+02 2.841949692243874779e+02
8.040000000000000000e+02 3.256075679734491359e+02
8.050000000000000000e+02 3.930399289359068007e+02
8.060000000000000000e+02 4.669364374533377600e+02
8.070000000000000000e+02 5.301894947728681018e+02
8.080000000000000000e+02 6.023011528521034279e+02
8.090000000000000000e+02 7.054445580257139454e+02
8.100000000000000000e+02 8.049129100808947896e+02
8.110000000000000000e+02 8.678449883011812744e+02
8.120000000000000000e+02 8.972049418291162510e+02
8.130000000000000000e+02 8.667603502800260458e+02
8.140000000000000000e+02 7.840823806471710213e+02
8.150000000000000000e+02 6.839583897946497473e+02
8.160000000000000000e+02 5.385501941713349652e+02
8.170000000000000000e+02 4.273158943995033496e+02
8.180000000000000000e+02 3.163407274631806558e+02
8.190000000000000000e+02 2.352149916614803544e+02
8.200000000000000000e+02 1.828040427504662375e+02
8.210000000000000000e+02 1.407710145820377079e+02
8.220000000000000000e+02 1.105554788840483553e+02
8.230000000000000000e+02 9.709440728064666359e+01
8.240000000000000000e+02 7.053789096453087382e+01
8.250000000000000000e+02 5.895340202032787857e+01
8.260000000000000000e+02 5.197053249740760350e+01
8.270000000000000000e+02 4.769224351586809973e+01
8.280000000000000000e+02 4.073823159925376558e+01
8.290000000000000000e+02 2.314083825176255260e+01
8.300000000000000000e+02 2.947602571043358921e+01
8.310000000000000000e+02 2.108066973242082298e+01
8.320000000000000000e+02 1.447123848610537955e+01
8.330000000000000000e+02 1.581914005600499884e+01
8.340000000000000000e+02 1.332176067413394449e+01
8.350000000000000000e+02 1.097896235815031396e+01
8.360000000000000000e+02 1.752660431653167450e+01
8.370000000000000000e+02 6.048941785314132957e+00
8.380000000000000000e+02 1.949632805060073437e+01
8.390000000000000000e+02 1.338306593652833598e+01
8.400000000000000000e+02 8.188145288529460331e+00
8.410000000000000000e+02 1.246382852966046784e+00
8.420000000000000000e+02 9.192898766024338642e+00
8.430000000000000000e+02 3.116779150798501430e+00
8.440000000000000000e+02 5.201059533913890753e+00
8.450000000000000000e+02 1.601493841319226519e+01
8.460000000000000000e+02 4.711930891724054327e+00
8.470000000000000000e+02 5.362163350964527453e+00
8.480000000000000000e+02 5.940440707529567099e+00
8.490000000000000000e+02 8.627019939846517715e+00
8.500000000000000000e+02 1.631461800663648765e+00
8.510000000000000000e+02 9.183743665214925134e-01
8.520000000000000000e+02 2.003651230242732062e+00
8.530000000000000000e+02 1.312633458950475784e+01
8.540000000000000000e+02 7.286772838622032289e+00
8.550000000000000000e+02 1.794783177934529128e+00
8.560000000000000000e+02 1.191534426882220554e+00
8.570000000000000000e+02 6.471694543663415011e+00
8.580000000000000000e+02 1.031558379510561174e+01
8.590000000000000000e+02 5.771039385397243038e+00
8.600000000000000000e+02 9.075587919103833556e+00
8.610000000000000000e+02 3.634997939444403858e+00
8.620000000000000000e+02 4.475356174061530523e-01
8.630000000000000000e+02 2.234159585563130435e+00
8.640000000000000000e+02 4.255237084612195630e+00
8.650000000000000000e+02 1.652255191039136761e+00
8.660000000000000000e+02 4.220389086911489507e+00
8.670000000000000000e+02 1.961457943591721209e+00
8.680000000000000000e+02 2.508748169052222643e+00
8.690000000000000000e+02 1.891690677038000246e+01
8.700000000000000000e+02 2.183687041070229995e+01
8.710000000000000000e+02 8.044105085874187822e+00
8.720000000000000000e+02 4.533157197054299203e+00
8.730000000000000000e+02 2.473417068450498135e+00
8.740000000000000000e+02 1.681498838207880553e+01
8.750000000000000000e+02 1.024193427795032818e+01
8.760000000000000000e+02 2.580055919103946493e+00
8.770000000000000000e+02 2.994718087948523344e+00
8.780000000000000000e+02 2.673034679527123370e+00
8.790000000000000000e+02 2.077912308649698114e-01
8.800000000000000000e+02 1.453692518979438297e+00
8.810000000000000000e+02 1.154597512134442638e+01
8.820000000000000000e+02 3.975879543758017665e+00
8.830000000000000000e+02 4.008269327939986582e+00
8.840000000000000000e+02 1.226989268824018708e+00
8.850000000000000000e+02 5.102208397552993269e+00
8.860000000000000000e+02 8.369251778054254132e+00
8.870000000000000000e+02 1.119199290811047121e+01
8.880000000000000000e+02 1.550814924512665094e+01
8.890000000000000000e+02 1.984648438705662343e+01
8.900000000000000000e+02 1.270730435801718272e+01
8.910000000000000000e+02 2.072633957071748512e+01
8.920000000000000000e+02 2.109509453225466302e+01
8.930000000000000000e+02 1.522693343497201468e+01
8.940000000000000000e+02 2.260070618415602084e+01
8.950000000000000000e+02 1.336456812694444451e+01
8.960000000000000000e+02 1.566782068450516263e+01
8.970000000000000000e+02 5.410390225471555681e+00
8.980000000000000000e+02 1.281690135034219802e+00
8.990000000000000000e+02 6.429912514416292524e+00
9.000000000000000000e+02 1.273166368595714992e+01
9.010000000000000000e+02 8.081298481227841890e+00
9.020000000000000000e+02 3.957841479775961346e+00
9.030000000000000000e+02 3.997230752955809763e+00
9.040000000000000000e+02 4.459400152250591276e+00
9.050000000000000000e+02 1.028716934453437126e+01
9.060000000000000000e+02 2.364483147894651083e+00
9.070000000000000000e+02 4.463460306782830678e+00
9.080000000000000000e+02 1.084145708566687816e+01
9.090000000000000000e+02 9.323992895665236258e-01
9.100000000000000000e+02 2.949619079236642794e+00
9.110000000000000000e+02 1.855328773537969100e+00
9.120000000000000000e+02 7.655701519601835869e+00
9.130000000000000000e+02 1.721603241236260473e+01
9.140000000000000000e+02 1.239683350953954211e+01
9.150000000000000000e+02 2.037107931549433815e+00
9.160000000000000000e+02 1.787375377722464798e+00
9.170000000000000000e+02 1.173723704686861424e+01
9.180000000000000000e+02 2.214086185023856146e+01
9.190000000000000000e+02 1.260004955610872202e+01
9.200000000000000000e+02 1.232648313562839526e+01
9.210000000000000000e+02 1.753072415681395668e+01
9.220000000000000000e+02 8.873615380626532101e+00
9.230000000000000000e+02 8.024801917652093053e+00
9.240000000000000000e+02 2.124570371499688903e+01
9.250000000000000000e+02 1.497608371748562028e+01
9.260000000000000000e+02 8.337392014312355215e+00
9.270000000000000000e+02 1.151518870732204292e+01
9.280000000000000000e+02 1.778656674134001747e+01
9.290000000000000000e+02 9.923431421281886600e+00
9.300000000000000000e+02 7.595064085874261295e+00
9.310000000000000000e+02 1.370032789877603463e+01
9.320000000000000000e+02 2.174144106824307343e+01
9.330000000000000000e+02 2.517007557975527021e+01
9.340000000000000000e+02 1.460450688861253177e+01
9.350000000000000000e+02 1.377920926571249893e+01
9.360000000000000000e+02 1.268203818294964513e+01
9.370000000000000000e+02 8.720578547698146110e+00
9.380000000000000000e+02 5.733191229205541362e+00
9.390000000000000000e+02 2.204300764779063115e+00
9.400000000000000000e+02 4.576399203649607728e+00
9.410000000000000000e+02 1.026389790147301717e+01
9.420000000000000000e+02 8.892043009541634291e+00
9.430000000000000000e+02 7.730082277270389213e+00
9.440000000000000000e+02 1.735328626633477356e+01
9.450000000000000000e+02 6.047855335408144128e+00
9.460000000000000000e+02 2.481464645399907187e+00
9.470000000000000000e+02 7.327338292677836762e+00
9.480000000000000000e+02 8.843958644057119400e+00
9.490000000000000000e+02 1.309767161343836506e+01
9.500000000000000000e+02 6.068961466707972541e+00
9.510000000000000000e+02 1.516914319228382979e+01
9.520000000000000000e+02 4.385046789670183465e+00
9.530000000000000000e+02 3.534406303049159703e+00
9.540000000000000000e+02 1.899943646546344844e+00
9.550000000000000000e+02 1.460774696743450107e+01
9.560000000000000000e+02 2.180718291640726392e+01
9.570000000000000000e+02 1.820969924704422382e+01
9.580000000000000000e+02 2.539838978220267052e+01
9.590000000000000000e+02 2.843457450528932284e+01
9.600000000000000000e+02 2.832763964945021939e+01
9.610000000000000000e+02 1.097172967952786671e+01
9.620000000000000000e+02 5.434314973241799684e+00
9.630000000000000000e+02 8.090254808378430695e+00
9.640000000000000000e+02 8.853658702758501420e+00
9.650000000000000000e+02 1.705408392242270565e+01
9.660000000000000000e+02 1.909133618000802812e+01
9.670000000000000000e+02 2.902294013067828615e+01
9.680000000000000000e+02 1.261550330636809036e+01
9.690000000000000000e+02 6.314696909995864971e+00
9.700000000000000000e+02 1.916222072391651210e+01
9.710000000000000000e+02 3.611832562538911873e+01
9.720000000000000000e+02 4.394348520945672476e+01
9.730000000000000000e+02 4.212425646546343216e+01
9.740000000000000000e+02 3.889843017216352905e+01
9.750000000000000000e+02 5.040597856905808527e+01
9.760000000000000000e+02 3.590193261978947703e+01
9.770000000000000000e+02 4.175369460278010791e+01
9.780000000000000000e+02 4.645011537855205574e+01
9.790000000000000000e+02 6.167298531010067109e+01
9.800000000000000000e+02 7.789246387056651599e+01
9.810000000000000000e+02 8.015404730553805734e+01
9.820000000000000000e+02 1.016190793839449498e+02
9.830000000000000000e+02 1.185262002903960905e+02
9.840000000000000000e+02 1.139364928852935179e+02
9.850000000000000000e+02 1.485268883634104498e+02
9.860000000000000000e+02 1.762960680979051062e+02
9.870000000000000000e+02 2.002169600497830686e+02
9.880000000000000000e+02 2.383348715826605257e+02
9.890000000000000000e+02 2.838957102675805686e+02
9.900000000000000000e+02 3.214293294337286397e+02
9.910000000000000000e+02 3.495456232731815476e+02
9.920000000000000000e+02 3.944881034425565645e+02
9.930000000000000000e+02 4.336860784277116068e+02
9.940000000000000000e+02 4.226128987554437799e+02
9.950000000000000000e+02 3.973975974699285985e+02
9.960000000000000000e+02 3.544039858328160335e+02
9.970000000000000000e+02 3.174021173408007144e+02
9.980000000000000000e+02 3.046943640812942817e+02
9.990000000000000000e+02 2.615855137523334406e+02
1.000000000000000000e+03 2.415428186683260492e+02
1.001000000000000000e+03 2.231744966804984358e+02
1.002000000000000000e+03 2.005449224066386478e+02
1.003000000000000000e+03 1.806166149377596071e+02
1.004000000000000000e+03 1.702628798755183936e+02
1.005000000000000000e+03 1.572055726141080640e+02
1.006000000000000000e+03 1.439101590062113587e+02
1.007000000000000000e+03 1.418080481327797031e+02
1.008000000000000000e+03 1.222058788381749395e+02
1.009000000000000000e+03 1.009655018672193734e+02
1.010000000000000000e+03 8.654545551867245479e+01
1.011000000000000000e+03 7.974934109958509509e+01
1.012000000000000000e+03 7.223919634854765093e+01
1.013000000000000000e+03 6.249188234439849055e+01
1.014000000000000000e+03 5.218943427385877243e+01
1.015000000000000000e+03 4.237392464730304908e+01
1.016000000000000000e+03 3.511900506224036178e+01
1.017000000000000000e+03 3.044386132780069687e+01
1.018000000000000000e+03 4.419692912863067136e+01
1.019000000000000000e+03 3.618684462655584611e+01
1.020000000000000000e+03 3.324235331950190897e+01
1.021000000000000000e+03 4.779744022821630978e+01
1.022000000000000000e+03 4.717121078838223980e+01
1.023000000000000000e+03 3.496076937759337255e+01
1.024000000000000000e+03 3.965263834024901968e+01
1.025000000000000000e+03 4.454662551867207299e+01
1.026000000000000000e+03 4.111761846473024207e+01
1.027000000000000000e+03 5.284550619047590203e+01
1.028000000000000000e+03 6.101532869294624817e+01
1.029000000000000000e+03 5.015080122406455132e+01
1.030000000000000000e+03 4.760374228215745518e+01
1.031000000000000000e+03 5.969186809128667193e+01
1.032000000000000000e+03 7.557113867220027714e+01
1.033000000000000000e+03 8.609423966804952499e+01
1.034000000000000000e+03 8.716080726141088064e+01
1.035000000000000000e+03 8.767268523809593717e+01
1.036000000000000000e+03 1.064501232365145569e+02
1.037000000000000000e+03 8.806927566390139361e+01
1.038000000000000000e+03 1.066418584854776128e+02
1.039000000000000000e+03 1.056846605809108439e+02
1.040000000000000000e+03 7.914362141079021740e+01
1.041000000000000000e+03 6.276359232365153673e+01
1.042000000000000000e+03 5.958693941908703096e+01
1.043000000000000000e+03 5.884253991701245923e+01
1.044000000000000000e+03 6.124746082987569196e+01
1.045000000000000000e+03 5.236295319502012546e+01
1.046000000000000000e+03 2.746451678423178322e+01
1.047000000000000000e+03 3.539386130434644429e+01
1.048000000000000000e+03 4.703284800829877810e+01
1.049000000000000000e+03 4.685179568464702271e+01
1.050000000000000000e+03 4.219042141078828934e+01
1.051000000000000000e+03 3.005574360995938576e+01
1.052000000000000000e+03 1.536123226141079812e+01
1.053000000000000000e+03 2.456422060166076804e+01
1.054000000000000000e+03 2.901438431535255091e+01
1.055000000000000000e+03 2.985984931535270093e+01
1.056000000000000000e+03 2.087320695652076807e+01
1.057000000000000000e+03 8.000636813279077941e+00
1.058000000000000000e+03 8.126374431535108300e+00
1.059000000000000000e+03 4.723778008298726405e+00
1.060000000000000000e+03 5.354492468880915013e+00
1.061000000000000000e+03 2.027222327800839707e+01
1.062000000000000000e+03 1.146564361203300209e+01
1.063000000000000000e+03 8.113072240665117896e-01
1.064000000000000000e+03 5.226043739130148857e+00
1.065000000000000000e+03 8.905578734439663080e+00
1.066000000000000000e+03 1.012119931950163654e+01
1.067000000000000000e+03 3.338457012448426298e+00
1.068000000000000000e+03 3.595404029045396577e+00
1.069000000000000000e+03 7.020784207468938831e+00
1.070000000000000000e+03 4.919250468879289073e+00
1.071000000000000000e+03 2.215009369294580033e+00
1.072000000000000000e+03 1.017009999990672764e+00
1.073000000000000000e+03 1.833512174273797868e+01
1.074000000000000000e+03 2.807010887964534351e+00
1.075000000000000000e+03 1.595243987551862652e+01
1.076000000000000000e+03 7.933225391303983187e+00
1.077000000000000000e+03 1.295181697095426543e+01
1.078000000000000000e+03 2.498492082987544904e+01
1.079000000000000000e+03 2.303386950207470463e+01
1.080000000000000000e+03 2.109676983402491501e+01
1.081000000000000000e+03 2.321739784232349280e+01
1.082000000000000000e+03 2.518738597510364841e+01
1.083000000000000000e+03 3.304733377593389321e+01
1.084000000000000000e+03 3.400888398340247676e+01
1.085000000000000000e+03 4.522846535269653145e+01
1.086000000000000000e+03 5.334399744813281075e+01
1.087000000000000000e+03 5.307236894190855025e+01
1.088000000000000000e+03 5.889072427385726627e+01
1.089000000000000000e+03 7.189471917012447477e+01
1.090000000000000000e+03 7.798107734439905414e+01
1.091000000000000000e+03 9.490005804979243464e+01
1.092000000000000000e+03 1.099248190871359014e+02
1.093000000000000000e+03 1.315535968944103331e+02
1.094000000000000000e+03 1.437956400414945222e+02
1.095000000000000000e+03 1.521795709543561941e+02
1.096000000000000000e+03 1.630374099585059753e+02
1.097000000000000000e+03 1.632082002070388853e+02
1.098000000000000000e+03 1.621407269709531818e+02
1.099000000000000000e+03 1.695073597510375407e+02
1.100000000000000000e+03 1.603313680497921894e+02
1.101000000000000000e+03 1.424767118257258574e+02
1.102000000000000000e+03 1.391271726141083036e+02
1.103000000000000000e+03 1.297596479253112420e+02
1.104000000000000000e+03 1.218271603734436610e+02
1.105000000000000000e+03 1.180960718426500904e+02
1.106000000000000000e+03 9.921844522821655232e+01
1.107000000000000000e+03 1.018117378008307696e+02
1.108000000000000000e+03 1.240212327800843184e+02
1.109000000000000000e+03 1.178300394190886919e+02
1.110000000000000000e+03 1.029906767634855385e+02
1.111000000000000000e+03 1.396423630705415917e+02
1.112000000000000000e+03 1.348465703319467934e+02
1.113000000000000000e+03 1.752342428571420498e+02
1.114000000000000000e+03 1.821768112033196871e+02
1.115000000000000000e+03 1.946060821576772355e+02
1.116000000000000000e+03 2.139153987551855494e+02
1.117000000000000000e+03 2.423359571428575805e+02
1.118000000000000000e+03 2.814679012448169146e+02
1.119000000000000000e+03 3.201013072614078965e+02
1.120000000000000000e+03 3.466475392116179250e+02
1.121000000000000000e+03 3.587110784232370975e+02
1.122000000000000000e+03 3.775254095238083210e+02
1.123000000000000000e+03 3.910208360995846988e+02
1.124000000000000000e+03 3.853926464730288899e+02
1.125000000000000000e+03 3.885506668049785048e+02
1.126000000000000000e+03 3.674586041493796529e+02
1.127000000000000000e+03 3.454759018672199886e+02
1.128000000000000000e+03 3.366154163900410481e+02
1.129000000000000000e+03 3.221857298755176657e+02
1.130000000000000000e+03 3.120879941908709156e+02
1.131000000000000000e+03 3.276987734439835549e+02
1.132000000000000000e+03 3.321545398340260249e+02
1.133000000000000000e+03 3.562211066390025849e+02
1.134000000000000000e+03 3.666482670807453701e+02
1.135000000000000000e+03 4.194409118257306659e+02
1.136000000000000000e+03 4.336079985477183527e+02
1.137000000000000000e+03 4.400950939834016253e+02
1.138000000000000000e+03 4.261997798755179474e+02
1.139000000000000000e+03 3.913245336099565179e+02
1.140000000000000000e+03 3.703948373443994910e+02
1.141000000000000000e+03 3.505474651452282160e+02
1.142000000000000000e+03 3.207213219461659719e+02
1.143000000000000000e+03 2.640721914937790302e+02
1.144000000000000000e+03 2.386086688796686417e+02
1.145000000000000000e+03 2.014355641078822430e+02
1.146000000000000000e+03 1.663268807453422653e+02
1.147000000000000000e+03 1.399778954356856957e+02
1.148000000000000000e+03 1.244374995850620707e+02
1.149000000000000000e+03 1.133051547717832648e+02
1.150000000000000000e+03 1.110620128630700094e+02
1.151000000000000000e+03 1.100865633540373523e+02
1.152000000000000000e+03 7.691173041493550500e+01
1.153000000000000000e+03 4.498187356846580087e+01
1.154000000000000000e+03 5.828803711618306949e+01
1.155000000000000000e+03 4.229588070539388411e+01
1.156000000000000000e+03 4.487191684647343237e+01
1.157000000000000000e+03 4.358158045643205014e+01
1.158000000000000000e+03 3.063560000000020267e+01
1.159000000000000000e+03 4.345717574689026463e+01
1.160000000000000000e+03 5.116830879668077614e+01
1.161000000000000000e+03 2.888616454356935392e+01
1.162000000000000000e+03 1.725858744813278989e+01
1.163000000000000000e+03 2.563385900621200619e+01
1.164000000000000000e+03 2.927651228215755808e+01
1.165000000000000000e+03 2.742858999999999980e+01
1.166000000000000000e+03 1.490613273858875942e+01
1.167000000000000000e+03 1.113577310558952149e+01
1.168000000000000000e+03 2.095993871369278239e+01
1.169000000000000000e+03 1.490555219916975638e+01
1.170000000000000000e+03 2.048910821576791719e+01
1.171000000000000000e+03 1.858980153209248698e+01
1.172000000000000000e+03 1.335546214107918317e+01
1.173000000000000000e+03 2.443398464730225683e+01
1.174000000000000000e+03 1.088748538589338466e+01
1.175000000000000000e+03 4.597114233954398443e+00
1.176000000000000000e+03 1.639385043568514178e+01
1.177000000000000000e+03 5.651848473030023357e+00
1.178000000000000000e+03 1.593372041078761470e+01
1.179000000000000000e+03 2.008735503105586417e+01
1.180000000000000000e+03 1.283147486721939146e+01
1.181000000000000000e+03 8.466342286307039444e+00
1.182000000000000000e+03 9.335282730290433761e+00
1.183000000000000000e+03 9.653126344398282654e+00
1.184000000000000000e+03 7.426570587137270252e+00
1.185000000000000000e+03 3.612186375518862569e+00
1.186000000000000000e+03 2.098602641078922915e+00
1.187000000000000000e+03 7.986845221992028954e+00
1.188000000000000000e+03 8.852160058091111949e+00
1.189000000000000000e+03 1.640881327800829226e+01
1.190000000000000000e+03 5.316353634853867582e+00
1.191000000000000000e+03 7.368484938463415457e-01
1.192000000000000000e+03 2.911286993775716869e+00
1.193000000000000000e+03 1.499089699170155399e+01
1.194000000000000000e+03 8.438877962654927956e+00
1.195000000000000000e+03 1.151343002074679944e+01
1.196000000000000000e+03 9.798117163561091303e+00
1.197000000000000000e+03 4.435943116183501012e+00
1.198000000000000000e+03 1.921005701244758868e+01
1.199000000000000000e+03 1.827824746887981888e+01
1.200000000000000000e+03 1.200438236024812610e+01
1.201000000000000000e+03 3.503887311203621291e+00
1.202000000000000000e+03 1.104252259336138575e+00
1.203000000000000000e+03 5.408406773858966510e+00
1.204000000000000000e+03 2.677692770185542859e+00
1.205000000000000000e+03 8.122060605808206546e+00
1.206000000000000000e+03 4.180362809128647328e+00
1.207000000000000000e+03 1.553584365146168045e+00
1.208000000000000000e+03 1.185618438095102256e+01
1.209000000000000000e+03 1.155426405165644654e+00
1.210000000000000000e+03 1.069158452074698751e+01
1.211000000000000000e+03 1.357613454356876836e+01
1.212000000000000000e+03 1.493775782157733190e+01
1.213000000000000000e+03 2.050674302904556434e+00
1.214000000000000000e+03 1.089337451452392713e+01
1.215000000000000000e+03 1.009960860580956243e+01
1.216000000000000000e+03 1.892938207469184508e+00
1.217000000000000000e+03 7.433684114108351615e+00
1.218000000000000000e+03 1.469528775933647147e+01
1.219000000000000000e+03 1.279016632780114016e+01
1.220000000000000000e+03 1.238332082987541760e+01
1.221000000000000000e+03 2.049845273858954897e+01
1.222000000000000000e+03 2.197368170124526898e+01
1.223000000000000000e+03 1.464533286307094251e+01
1.224000000000000000e+03 5.125839464730257866e+00
1.225000000000000000e+03 1.123210906832294853e+01
1.226000000000000000e+03 1.630756730290461931e+01
1.227000000000000000e+03 5.433000205394129978e+00
1.228000000000000000e+03 1.626757494398473369e+01
1.229000000000000000e+03 8.735576569358940446e+00
1.230000000000000000e+03 5.499133572613894572e+00
1.231000000000000000e+03 2.469450398340344321e+01
1.232000000000000000e+03 2.253772979252889286e+01
1.233000000000000000e+03 4.534909508297685576e+00
1.234000000000000000e+03 1.941685159751010303e+01
1.235000000000000000e+03 6.143289968879019014e+00
1.236000000000000000e+03 3.009032076762905739e+00
1.237000000000000000e+03 1.291978677018611066e+01
1.238000000000000000e+03 2.521588568464789049e+01
1.239000000000000000e+03 3.204658506224068049e+01
1.240000000000000000e+03 2.794943721991744923e+01
1.241000000000000000e+03 1.388760724637639754e+01
1.242000000000000000e+03 7.468095562240726792e+00
1.243000000000000000e+03 1.073028025726106094e+01
1.244000000000000000e+03 4.349913817427585983e+00
1.245000000000000000e+03 9.477269089212409625e+00
1.246000000000000000e+03 2.862872016597791358e+01
1.247000000000000000e+03 8.301409929460444204e+00
1.248000000000000000e+03 1.677295398340302057e+01
1.249000000000000000e+03 3.101030103734379395e+01
1.250000000000000000e+03 1.905665919087193672e+01
1.251000000000000000e+03 1.400824887966805399e+01
1.252000000000000000e+03 1.690912896265560406e+01
1.253000000000000000e+03 3.805557661825676785e+00
1.254000000000000000e+03 3.266506767634679953e+00
1.255000000000000000e+03 1.304589265560200673e+01
1.256000000000000000e+03 1.144784236514439790e+01
1.257000000000000000e+03 1.073970200829826638e+01
1.258000000000000000e+03 1.345955165975100698e+01
1.259000000000000000e+03 1.080748699170121085e+01
1.260000000000000000e+03 1.646898778008189268e+01
1.261000000000000000e+03 2.452344412863103074e+01
1.262000000000000000e+03 1.497059228215759674e+01
1.263000000000000000e+03 1.658167668049823362e+01
1.264000000000000000e+03 2.057515751037359664e+01
1.265000000000000000e+03 1.240528992531111285e+01
1.266000000000000000e+03 8.641048202898463870e+00
1.267000000000000000e+03 7.567868817427387818e+00
1.268000000000000000e+03 1.217642888381734068e+01
1.269000000000000000e+03 1.729545298755203930e+01
1.270000000000000000e+03 1.108700529192617168e+01
1.271000000000000000e+03 3.321393406639137069e+00
1.272000000000000000e+03 3.429246224066409443e+00
1.273000000000000000e+03 1.056614232365297212e+01
1.274000000000000000e+03 2.013637478260999814e+01
1.275000000000000000e+03 4.761415688796651224e+00
1.276000000000000000e+03 3.697592433610760843e+00
1.277000000000000000e+03 2.298308948132675766e+01
1.278000000000000000e+03 2.545711504149347704e+01
1.279000000000000000e+03 3.771829112033225329e+01
1.280000000000000000e+03 3.027777506224096271e+01
1.281000000000000000e+03 2.164952634854806135e+01
1.282000000000000000e+03 1.436213834024900748e+01
1.283000000000000000e+03 1.907834929460678097e+01
1.284000000000000000e+03 2.390383981327807916e+01
1.285000000000000000e+03 2.624407651452261447e+01
1.286000000000000000e+03 1.953903701244761493e+01
1.287000000000000000e+03 7.162881609957037377e+00
1.288000000000000000e+03 1.921342962655564079e+01
1.289000000000000000e+03 2.191729751037332008e+01
1.290000000000000000e+03 1.458470551867321952e+01
1.291000000000000000e+03 2.542474070539562803e+01
1.292000000000000000e+03 2.286957877593307931e+00
1.293000000000000000e+03 1.468227840249045357e+01
1.294000000000000000e+03 1.599402408713706691e+01
1.295000000000000000e+03 1.085229082815750168e+01
1.296000000000000000e+03 1.562704219917032589e+01
1.297000000000000000e+03 1.577091423236469225e+01
1.298000000000000000e+03 7.546665112034238732e+00
1.299000000000000000e+03 2.105078449275360253e+00
1.300000000000000000e+03 1.739077269709845774e+00
1.301000000000000000e+03 7.739885433609274834e+00
1.302000000000000000e+03 6.851332701245373968e+00
1.303000000000000000e+03 2.355352304761766311e-02
1.304000000000000000e+03 0.000000000000000000e+00
1.305000000000000000e+03 0.000000000000000000e+00
1.306000000000000000e+03 0.000000000000000000e+00
1.307000000000000000e+03 0.000000000000000000e+00
1.308000000000000000e+03 0.000000000000000000e+00
1.309000000000000000e+03 0.000000000000000000e+00
1.310000000000000000e+03 0.000000000000000000e+00
1.311000000000000000e+03 0.000000000000000000e+00
1.312000000000000000e+03 0.000000000000000000e+00
1.313000000000000000e+03 0.000000000000000000e+00
1.314000000000000000e+03 0.000000000000000000e+00
1.315000000000000000e+03 0.000000000000000000e+00
1.316000000000000000e+03 0.000000000000000000e+00
1.317000000000000000e+03 0.000000000000000000e+00
1.318000000000000000e+03 0.000000000000000000e+00
1.319000000000000000e+03 0.000000000000000000e+00
1.320000000000000000e+03 0.000000000000000000e+00
1.321000000000000000e+03 0.000000000000000000e+00
1.322000000000000000e+03 0.000000000000000000e+00
1.323000000000000000e+03 0.000000000000000000e+00
1.324000000000000000e+03 0.000000000000000000e+00
1.325000000000000000e+03 0.000000000000000000e+00
1.326000000000000000e+03 0.000000000000000000e+00
1.327000000000000000e+03 0.000000000000000000e+00
1.328000000000000000e+03 0.000000000000000000e+00
1.329000000000000000e+03 0.000000000000000000e+00
1.330000000000000000e+03 0.000000000000000000e+00
1.331000000000000000e+03 0.000000000000000000e+00
1.332000000000000000e+03 0.000000000000000000e+00
1.333000000000000000e+03 0.000000000000000000e+00
1.334000000000000000e+03 0.000000000000000000e+00
1.335000000000000000e+03 0.000000000000000000e+00
1.336000000000000000e+03 0.000000000000000000e+00
1.337000000000000000e+03 0.000000000000000000e+00
1.338000000000000000e+03 0.000000000000000000e+00
1.339000000000000000e+03 0.000000000000000000e+00
1.340000000000000000e+03 0.000000000000000000e+00
1.341000000000000000e+03 0.000000000000000000e+00
1.342000000000000000e+03 0.000000000000000000e+00
1.343000000000000000e+03 0.000000000000000000e+00
1.344000000000000000e+03 0.000000000000000000e+00
1.345000000000000000e+03 0.000000000000000000e+00
1.346000000000000000e+03 0.000000000000000000e+00
1.347000000000000000e+03 0.000000000000000000e+00
1.348000000000000000e+03 0.000000000000000000e+00
1.349000000000000000e+03 0.000000000000000000e+00
1.350000000000000000e+03 0.000000000000000000e+00
1.351000000000000000e+03 0.000000000000000000e+00
1.352000000000000000e+03 0.000000000000000000e+00
1.353000000000000000e+03 0.000000000000000000e+00
1.354000000000000000e+03 0.000000000000000000e+00
1.355000000000000000e+03 0.000000000000000000e+00
1.356000000000000000e+03 0.000000000000000000e+00
1.357000000000000000e+03 0.000000000000000000e+00
1.358000000000000000e+03 0.000000000000000000e+00
1.359000000000000000e+03 0.000000000000000000e+00
1.360000000000000000e+03 0.000000000000000000e+00
1.361000000000000000e+03 0.000000000000000000e+00
1.362000000000000000e+03 0.000000000000000000e+00
1.363000000000000000e+03 0.000000000000000000e+00
1.364000000000000000e+03 0.000000000000000000e+00
1.365000000000000000e+03 0.000000000000000000e+00
1.366000000000000000e+03 0.000000000000000000e+00
1.367000000000000000e+03 0.000000000000000000e+00
1.368000000000000000e+03 0.000000000000000000e+00
1.369000000000000000e+03 0.000000000000000000e+00
1.370000000000000000e+03 0.000000000000000000e+00
1.371000000000000000e+03 0.000000000000000000e+00
1.372000000000000000e+03 0.000000000000000000e+00
1.373000000000000000e+03 0.000000000000000000e+00
1.374000000000000000e+03 0.000000000000000000e+00
1.375000000000000000e+03 0.000000000000000000e+00
1.376000000000000000e+03 0.000000000000000000e+00
1.377000000000000000e+03 0.000000000000000000e+00
1.378000000000000000e+03 0.000000000000000000e+00
1.379000000000000000e+03 0.000000000000000000e+00
1.380000000000000000e+03 0.000000000000000000e+00
1.381000000000000000e+03 0.000000000000000000e+00
1.382000000000000000e+03 0.000000000000000000e+00
1.383000000000000000e+03 0.000000000000000000e+00
1.384000000000000000e+03 0.000000000000000000e+00
1.385000000000000000e+03 0.000000000000000000e+00
1.386000000000000000e+03 0.000000000000000000e+00
1.387000000000000000e+03 0.000000000000000000e+00
1.388000000000000000e+03 0.000000000000000000e+00
1.389000000000000000e+03 0.000000000000000000e+00
1.390000000000000000e+03 0.000000000000000000e+00
1.391000000000000000e+03 0.000000000000000000e+00
1.392000000000000000e+03 0.000000000000000000e+00
1.393000000000000000e+03 0.000000000000000000e+00
1.394000000000000000e+03 0.000000000000000000e+00
1.395000000000000000e+03 0.000000000000000000e+00
1.396000000000000000e+03 0.000000000000000000e+00
1.397000000000000000e+03 0.000000000000000000e+00
1.398000000000000000e+03 0.000000000000000000e+00
1.399000000000000000e+03 0.000000000000000000e+00
1.400000000000000000e+03 0.000000000000000000e+00
1.401000000000000000e+03 0.000000000000000000e+00
1.402000000000000000e+03 0.000000000000000000e+00
1.403000000000000000e+03 0.000000000000000000e+00
1.404000000000000000e+03 0.000000000000000000e+00
1.405000000000000000e+03 0.000000000000000000e+00
1.406000000000000000e+03 0.000000000000000000e+00
1.407000000000000000e+03 0.000000000000000000e+00
1.408000000000000000e+03 0.000000000000000000e+00
1.409000000000000000e+03 0.000000000000000000e+00
1.410000000000000000e+03 0.000000000000000000e+00
1.411000000000000000e+03 0.000000000000000000e+00
1.412000000000000000e+03 0.000000000000000000e+00
1.413000000000000000e+03 0.000000000000000000e+00
1.414000000000000000e+03 0.000000000000000000e+00
1.415000000000000000e+03 0.000000000000000000e+00
1.416000000000000000e+03 0.000000000000000000e+00
1.417000000000000000e+03 0.000000000000000000e+00
1.418000000000000000e+03 0.000000000000000000e+00
1.419000000000000000e+03 0.000000000000000000e+00
1.420000000000000000e+03 0.000000000000000000e+00
1.421000000000000000e+03 0.000000000000000000e+00
1.422000000000000000e+03 0.000000000000000000e+00
1.423000000000000000e+03 0.000000000000000000e+00
1.424000000000000000e+03 0.000000000000000000e+00
1.425000000000000000e+03 0.000000000000000000e+00
1.426000000000000000e+03 0.000000000000000000e+00
1.427000000000000000e+03 0.000000000000000000e+00
1.428000000000000000e+03 0.000000000000000000e+00
1.429000000000000000e+03 0.000000000000000000e+00
1.430000000000000000e+03 0.000000000000000000e+00
1.431000000000000000e+03 0.000000000000000000e+00
1.432000000000000000e+03 0.000000000000000000e+00
1.433000000000000000e+03 0.000000000000000000e+00
1.434000000000000000e+03 0.000000000000000000e+00
1.435000000000000000e+03 0.000000000000000000e+00
1.436000000000000000e+03 0.000000000000000000e+00
1.437000000000000000e+03 0.000000000000000000e+00
1.438000000000000000e+03 0.000000000000000000e+00
1.439000000000000000e+03 0.000000000000000000e+00
1.440000000000000000e+03 0.000000000000000000e+00
1.441000000000000000e+03 0.000000000000000000e+00
1.442000000000000000e+03 0.000000000000000000e+00
1.443000000000000000e+03 0.000000000000000000e+00
1.444000000000000000e+03 0.000000000000000000e+00
1.445000000000000000e+03 0.000000000000000000e+00
1.446000000000000000e+03 0.000000000000000000e+00
1.447000000000000000e+03 0.000000000000000000e+00
1.448000000000000000e+03 0.000000000000000000e+00
1.449000000000000000e+03 0.000000000000000000e+00
1.450000000000000000e+03 0.000000000000000000e+00
1.451000000000000000e+03 0.000000000000000000e+00
1.452000000000000000e+03 0.000000000000000000e+00
1.453000000000000000e+03 0.000000000000000000e+00
1.454000000000000000e+03 0.000000000000000000e+00
1.455000000000000000e+03 0.000000000000000000e+00
1.456000000000000000e+03 0.000000000000000000e+00
1.457000000000000000e+03 0.000000000000000000e+00
1.458000000000000000e+03 0.000000000000000000e+00
1.459000000000000000e+03 0.000000000000000000e+00
1.460000000000000000e+03 0.000000000000000000e+00
1.461000000000000000e+03 0.000000000000000000e+00
1.462000000000000000e+03 0.000000000000000000e+00
1.463000000000000000e+03 0.000000000000000000e+00
1.464000000000000000e+03 0.000000000000000000e+00
1.465000000000000000e+03 0.000000000000000000e+00
1.466000000000000000e+03 0.000000000000000000e+00
1.467000000000000000e+03 0.000000000000000000e+00
1.468000000000000000e+03 0.000000000000000000e+00
1.469000000000000000e+03 0.000000000000000000e+00
1.470000000000000000e+03 0.000000000000000000e+00
1.471000000000000000e+03 0.000000000000000000e+00
1.472000000000000000e+03 0.000000000000000000e+00
1.473000000000000000e+03 0.000000000000000000e+00
1.474000000000000000e+03 0.000000000000000000e+00
1.475000000000000000e+03 0.000000000000000000e+00
1.476000000000000000e+03 0.000000000000000000e+00
1.477000000000000000e+03 0.000000000000000000e+00
1.478000000000000000e+03 0.000000000000000000e+00
1.479000000000000000e+03 0.000000000000000000e+00
1.480000000000000000e+03 0.000000000000000000e+00
1.481000000000000000e+03 0.000000000000000000e+00
1.482000000000000000e+03 0.000000000000000000e+00
1.483000000000000000e+03 0.000000000000000000e+00
1.484000000000000000e+03 0.000000000000000000e+00
1.485000000000000000e+03 0.000000000000000000e+00
1.486000000000000000e+03 0.000000000000000000e+00
1.487000000000000000e+03 0.000000000000000000e+00
1.488000000000000000e+03 0.000000000000000000e+00
1.489000000000000000e+03 0.000000000000000000e+00
1.490000000000000000e+03 0.000000000000000000e+00
1.491000000000000000e+03 0.000000000000000000e+00
1.492000000000000000e+03 0.000000000000000000e+00
1.493000000000000000e+03 0.000000000000000000e+00
1.494000000000000000e+03 0.000000000000000000e+00
1.495000000000000000e+03 0.000000000000000000e+00
1.496000000000000000e+03 0.000000000000000000e+00
1.497000000000000000e+03 0.000000000000000000e+00
1.498000000000000000e+03 0.000000000000000000e+00
1.499000000000000000e+03 0.000000000000000000e+00
1.500000000000000000e+03 0.000000000000000000e+00
