9.200000000000000000e+01 1.889859397418039100e+00
9.300000000000000000e+01 1.013561434720231063e+02
9.400000000000000000e+01 4.227608994974872871e+02
9.500000000000000000e+01 9.243762735104087369e+02
9.600000000000000000e+01 1.581735211055275386e+03
9.700000000000000000e+01 2.673869007896623771e+03
9.800000000000000000e+01 3.791508084709258128e+03
9.900000000000000000e+01 4.850959496769558427e+03
1.000000000000000000e+02 6.156365096195258047e+03
1.010000000000000000e+02 7.269078862068963645e+03
1.020000000000000000e+02 8.196419238505748581e+03
1.030000000000000000e+02 8.888569382183912239e+03
1.040000000000000000e+02 8.664099431034483132e+03
1.050000000000000000e+02 8.171398232758622726e+03
1.060000000000000000e+02 7.489344545977011876e+03
1.070000000000000000e+02 6.395578741379307758e+03
1.080000000000000000e+02 5.106133112149532280e+03
1.090000000000000000e+02 3.886760015097052928e+03
1.100000000000000000e+02 3.011624141624724871e+03
1.110000000000000000e+02 2.193307914450033422e+03
1.120000000000000000e+02 1.661364222861251164e+03
1.130000000000000000e+02 1.426435772661870260e+03
1.140000000000000000e+02 1.474478218705035715e+03
1.150000000000000000e+02 1.622966612949639284e+03
1.160000000000000000e+02 1.783069335251797838e+03
1.170000000000000000e+02 1.902314658992804880e+03
1.180000000000000000e+02 1.696909621582735099e+03
1.190000000000000000e+02 1.298028447084235722e+03
1.200000000000000000e+02 8.686261323741006208e+02
1.210000000000000000e+02 8.891455568345323854e+02
1.220000000000000000e+02 7.417295183585314362e+02
1.230000000000000000e+02 5.427214838012953351e+02
1.240000000000000000e+02 3.325409783861664437e+02
1.250000000000000000e+02 2.061187881844378182e+02
1.260000000000000000e+02 1.226833808495319147e+02
1.270000000000000000e+02 7.942608357348704828e+01
1.280000000000000000e+02 8.327766858789630078e+01
1.290000000000000000e+02 5.108282420749240771e+01
1.300000000000000000e+02 8.405302017291140260e+01
1.310000000000000000e+02 1.871906488824800761e+02
1.320000000000000000e+02 1.535835832732515485e+02
1.330000000000000000e+02 1.135467801009371840e+02
1.340000000000000000e+02 1.095193424657535957e+02
1.350000000000000000e+02 1.945171795241529935e+02
1.360000000000000000e+02 1.376226546503243640e+02
1.370000000000000000e+02 8.387488968997833183e+01
1.380000000000000000e+02 4.989360317460317873e+01
1.390000000000000000e+02 4.939432467532467541e+01
1.400000000000000000e+02 1.161771730353284795e+02
1.410000000000000000e+02 1.438304343434339216e+02
1.420000000000000000e+02 6.808295959595892555e+01
1.430000000000000000e+02 3.294036209386268297e+02
1.440000000000000000e+02 4.934766507936499806e+02
1.450000000000000000e+02 5.409058808664266280e+02
1.460000000000000000e+02 4.114546173285196460e+02
1.470000000000000000e+02 3.631132772563174171e+02
1.480000000000000000e+02 3.353692462093861195e+02
1.490000000000000000e+02 3.167248837545122342e+02
1.500000000000000000e+02 3.693263277978338692e+02
1.510000000000000000e+02 4.408138836705197718e+02
1.520000000000000000e+02 5.174584714801436576e+02
1.530000000000000000e+02 5.842144281588444983e+02
1.540000000000000000e+02 6.441340520231217397e+02
1.550000000000000000e+02 7.045907310195232185e+02
1.560000000000000000e+02 7.679995744219652352e+02
1.570000000000000000e+02 8.426607015895945096e+02
1.580000000000000000e+02 8.915481366594358406e+02
1.590000000000000000e+02 9.533572472885033449e+02
1.600000000000000000e+02 1.051563321041214294e+03
1.610000000000000000e+02 1.130436898047722934e+03
1.620000000000000000e+02 1.232171616775127632e+03
1.630000000000000000e+02 1.367299950072359479e+03
1.640000000000000000e+02 1.566716013748190790e+03
1.650000000000000000e+02 1.812085122921183938e+03
1.660000000000000000e+02 2.048806206946453585e+03
1.670000000000000000e+02 2.266194260492043668e+03
1.680000000000000000e+02 2.502400483357454959e+03
1.690000000000000000e+02 2.882346383779872667e+03
1.700000000000000000e+02 3.376189245474298332e+03
1.710000000000000000e+02 3.980627333816079499e+03
1.720000000000000000e+02 4.869485641099859095e+03
1.730000000000000000e+02 5.749952890658944852e+03
1.740000000000000000e+02 6.688290715942031966e+03
1.750000000000000000e+02 8.037887817391312637e+03
1.760000000000000000e+02 9.486165602461993331e+03
1.770000000000000000e+02 1.089392398840580790e+04
1.780000000000000000e+02 1.222483075362321142e+04
1.790000000000000000e+02 1.436135973913041926e+04
1.800000000000000000e+02 1.639417763768113582e+04
1.810000000000000000e+02 1.827002975797100225e+04
1.820000000000000000e+02 1.986957396086955487e+04
1.830000000000000000e+02 2.125766712835388171e+04
1.840000000000000000e+02 2.228109459245829930e+04
1.850000000000000000e+02 2.283586504641044667e+04
1.860000000000000000e+02 2.243336540899202373e+04
1.870000000000000000e+02 2.162039095939086110e+04
1.880000000000000000e+02 2.026665228301886600e+04
1.890000000000000000e+02 1.822636926415096241e+04
1.900000000000000000e+02 1.627190056345178346e+04
1.910000000000000000e+02 1.434094647460085980e+04
1.920000000000000000e+02 1.238419665602319947e+04
1.930000000000000000e+02 1.029656966037735765e+04
1.940000000000000000e+02 8.795308893972412989e+03
1.950000000000000000e+02 7.449223539912924025e+03
1.960000000000000000e+02 6.210796703703701496e+03
1.970000000000000000e+02 5.373362426289037103e+03
1.980000000000000000e+02 4.549730000726212893e+03
1.990000000000000000e+02 3.862294991285398282e+03
2.000000000000000000e+02 3.420226000726214806e+03
2.010000000000000000e+02 2.957524622819767046e+03
2.020000000000000000e+02 2.611587666666668156e+03
2.030000000000000000e+02 2.358692767441862088e+03
2.040000000000000000e+02 2.152948581395346537e+03
2.050000000000000000e+02 1.904487581395346297e+03
2.060000000000000000e+02 1.787209789818182117e+03
2.070000000000000000e+02 1.795135435319764838e+03
2.080000000000000000e+02 1.460359999273254289e+03
2.090000000000000000e+02 1.274730039999999690e+03
2.100000000000000000e+02 1.173313792727272585e+03
2.110000000000000000e+02 1.119969065454545444e+03
2.120000000000000000e+02 9.046039963636355878e+02
2.130000000000000000e+02 8.276036972343523530e+02
2.140000000000000000e+02 8.178658298181808277e+02
2.150000000000000000e+02 6.884483752727262527e+02
2.160000000000000000e+02 6.679652605531294967e+02
2.170000000000000000e+02 6.371788682678308078e+02
2.180000000000000000e+02 5.752612270742359897e+02
2.190000000000000000e+02 5.536615181950510305e+02
2.200000000000000000e+02 5.718473838310269457e+02
2.210000000000000000e+02 5.615331697013832581e+02
2.220000000000000000e+02 4.679585156591393797e+02
2.230000000000000000e+02 6.252428208302985695e+02
2.240000000000000000e+02 6.890029082301529115e+02
2.250000000000000000e+02 6.884279774217043268e+02
2.260000000000000000e+02 6.968948383102695061e+02
2.270000000000000000e+02 7.172333367346940349e+02
2.280000000000000000e+02 7.462871463947561779e+02
2.290000000000000000e+02 7.822974125364434030e+02
2.300000000000000000e+02 8.164388119533526833e+02
2.310000000000000000e+02 8.463652494529542309e+02
2.320000000000000000e+02 8.398515291545182890e+02
2.330000000000000000e+02 7.728201880466472176e+02
2.340000000000000000e+02 6.883898366156096245e+02
2.350000000000000000e+02 6.216079161196207679e+02
2.360000000000000000e+02 5.470274989059071231e+02
2.370000000000000000e+02 4.174104310722099171e+02
2.380000000000000000e+02 2.711488249452962691e+02
2.390000000000000000e+02 2.465948467153274350e+02
2.400000000000000000e+02 3.037669000729414392e+02
2.410000000000000000e+02 1.313876148796495045e+02
2.420000000000000000e+02 9.707841824817521115e+01
2.430000000000000000e+02 8.562639444850252346e+01
2.440000000000000000e+02 4.655754744525545163e+01
2.450000000000000000e+02 2.127579562043801431e+01
2.460000000000000000e+02 3.576891161431690591e+01
2.470000000000000000e+02 8.028756861313840432e+01
2.480000000000000000e+02 1.480386635036491043e+02
2.490000000000000000e+02 6.625592330168076671e+01
2.500000000000000000e+02 1.194412456140341305e+02
2.510000000000000000e+02 2.520587691745801067e+02
2.520000000000000000e+02 2.049922972972973980e+02
2.530000000000000000e+02 1.787988413742689886e+02
2.540000000000000000e+02 2.086791600877197084e+02
2.550000000000000000e+02 2.796732616959048983e+02
2.560000000000000000e+02 8.957530847952992303e+01
2.570000000000000000e+02 1.432791513157918075e+02
2.580000000000000000e+02 2.294850555961955081e+02
2.590000000000000000e+02 1.881295325530358582e+02
2.600000000000000000e+02 2.051690819312360077e+02
2.610000000000000000e+02 1.574898902706659101e+02
2.620000000000000000e+02 1.287354279444062968e+02
2.630000000000000000e+02 2.922950475493784666e+02
2.640000000000000000e+02 3.068140673006584507e+02
2.650000000000000000e+02 2.480917774524172614e+02
2.660000000000000000e+02 1.641482210834551552e+02
2.670000000000000000e+02 2.318187920937047863e+02
2.680000000000000000e+02 1.146025344070246206e+02
2.690000000000000000e+02 7.625628989751285758e+01
2.700000000000000000e+02 2.145802490842518750e+02
2.710000000000000000e+02 5.685863736264118984e+01
2.720000000000000000e+02 2.634400805270807311e+01
2.730000000000000000e+02 3.835360732600769751e+01
2.740000000000000000e+02 1.170379047619102408e+01
2.750000000000000000e+02 1.308485337243400437e+01
2.760000000000000000e+02 6.940977509157501402e+01
2.770000000000000000e+02 1.642741010989003598e+02
2.780000000000000000e+02 2.609092659340645355e+02
2.790000000000000000e+02 2.912915835777125722e+02
2.800000000000000000e+02 4.210485043988263101e+02
2.810000000000000000e+02 6.384218899486421606e+02
2.820000000000000000e+02 6.643257784299333935e+02
2.830000000000000000e+02 8.732132309384138580e+02
2.840000000000000000e+02 1.023127815113719748e+03
2.850000000000000000e+02 1.006844428466618069e+03
2.860000000000000000e+02 1.211300774761555658e+03
2.870000000000000000e+02 1.440984498899486880e+03
2.880000000000000000e+02 1.625175966250917327e+03
2.890000000000000000e+02 1.680827470286133803e+03
2.900000000000000000e+02 1.557968432134995965e+03
2.910000000000000000e+02 1.555871011747429520e+03
2.920000000000000000e+02 1.561838370044057228e+03
2.930000000000000000e+02 1.269664361233477166e+03
2.940000000000000000e+02 1.222355462555065969e+03
2.950000000000000000e+02 1.110368412196915187e+03
2.960000000000000000e+02 9.170644185022026704e+02
2.970000000000000000e+02 8.753375462555073909e+02
2.980000000000000000e+02 7.692721631153584667e+02
2.990000000000000000e+02 6.571787362233660588e+02
3.000000000000000000e+02 5.650698956649523552e+02
3.010000000000000000e+02 5.100867950036735010e+02
3.020000000000000000e+02 4.079759588235293677e+02
3.030000000000000000e+02 3.487093240264508722e+02
3.040000000000000000e+02 4.178518662747982262e+02
3.050000000000000000e+02 4.006319139705883572e+02
3.060000000000000000e+02 4.010360830882351024e+02
3.070000000000000000e+02 3.873348579838135493e+02
3.080000000000000000e+02 2.931589933774839665e+02
3.090000000000000000e+02 3.643115088235282428e+02
3.100000000000000000e+02 3.729075121412810176e+02
3.110000000000000000e+02 3.223301199411332050e+02
3.120000000000000000e+02 3.361285011037530239e+02
3.130000000000000000e+02 3.466187718910963440e+02
3.140000000000000000e+02 3.619008298969068278e+02
3.150000000000000000e+02 3.814779499632082889e+02
3.160000000000000000e+02 3.791784650478293202e+02
3.170000000000000000e+02 4.132793902798231898e+02
3.180000000000000000e+02 4.700900530191454436e+02
3.190000000000000000e+02 5.399527952871875414e+02
3.200000000000000000e+02 4.801707628865986521e+02
3.210000000000000000e+02 5.196800795873251673e+02
3.220000000000000000e+02 6.378929359352016490e+02
3.230000000000000000e+02 8.203487533136988077e+02
3.240000000000000000e+02 8.980183655121586526e+02
3.250000000000000000e+02 9.233685202652910675e+02
3.260000000000000000e+02 9.461721762536890310e+02
3.270000000000000000e+02 1.065432500737465489e+03
3.280000000000000000e+02 1.056996692704495217e+03
3.290000000000000000e+02 1.032118690265486748e+03
3.300000000000000000e+02 1.020641933628318498e+03
3.310000000000000000e+02 1.071268039823008849e+03
3.320000000000000000e+02 1.180400517699115653e+03
3.330000000000000000e+02 1.211809193215338610e+03
3.340000000000000000e+02 1.165117227306276163e+03
3.350000000000000000e+02 1.411833832472324502e+03
3.360000000000000000e+02 1.290450690774911436e+03
3.370000000000000000e+02 1.199151700369001674e+03
3.380000000000000000e+02 1.350212341697416605e+03
3.390000000000000000e+02 1.327707544649446390e+03
3.400000000000000000e+02 1.393644970479703488e+03
3.410000000000000000e+02 1.459089468980798074e+03
3.420000000000000000e+02 1.435462437961595469e+03
3.430000000000000000e+02 1.555493593057607541e+03
3.440000000000000000e+02 1.785412348596755010e+03
3.450000000000000000e+02 2.014710675775480695e+03
3.460000000000000000e+02 2.055621310930575419e+03
3.470000000000000000e+02 2.342513906134508488e+03
3.480000000000000000e+02 2.675092481152991240e+03
3.490000000000000000e+02 3.059424008862637493e+03
3.500000000000000000e+02 3.583991217134408544e+03
3.510000000000000000e+02 4.215095071745558926e+03
3.520000000000000000e+02 4.951915390243902948e+03
3.530000000000000000e+02 5.783133877218933776e+03
3.540000000000000000e+02 6.651689350591730545e+03
3.550000000000000000e+02 7.706582903178139532e+03
3.560000000000000000e+02 8.719634804733728743e+03
3.570000000000000000e+02 9.601814616124245731e+03
3.580000000000000000e+02 1.034242186464496990e+04
3.590000000000000000e+02 1.076548798297557551e+04
3.600000000000000000e+02 1.087426436935603124e+04
3.610000000000000000e+02 1.065159591050295603e+04
3.620000000000000000e+02 1.011285108801776187e+04
3.630000000000000000e+02 9.400429150259087692e+03
3.640000000000000000e+02 8.559629442962977919e+03
3.650000000000000000e+02 7.624030183703696821e+03
3.660000000000000000e+02 6.840066240562538951e+03
3.670000000000000000e+02 5.961977404444445710e+03
3.680000000000000000e+02 5.178996362222223979e+03
3.690000000000000000e+02 4.795705251111104189e+03
3.700000000000000000e+02 4.159093879999996716e+03
3.710000000000000000e+02 3.751917126666669446e+03
3.720000000000000000e+02 3.458999637509278273e+03
3.730000000000000000e+02 2.932601564862869054e+03
3.740000000000000000e+02 2.778852986656783287e+03
3.750000000000000000e+02 2.723212318518518714e+03
3.760000000000000000e+02 2.657542229970332755e+03
3.770000000000000000e+02 2.356683179525219202e+03
3.780000000000000000e+02 2.399980628613790941e+03
3.790000000000000000e+02 2.286990117210674271e+03
3.800000000000000000e+02 1.990969962194219306e+03
3.810000000000000000e+02 2.083678635285398741e+03
3.820000000000000000e+02 2.014175740356080951e+03
3.830000000000000000e+02 1.868964795842613285e+03
3.840000000000000000e+02 1.688213583086056360e+03
3.850000000000000000e+02 1.555586728486645370e+03
3.860000000000000000e+02 1.481347271714922044e+03
3.870000000000000000e+02 1.417806176688939331e+03
3.880000000000000000e+02 1.333354975501112904e+03
3.890000000000000000e+02 1.125916965107643136e+03
3.900000000000000000e+02 1.046938375649591762e+03
3.910000000000000000e+02 9.882872199108489895e+02
3.920000000000000000e+02 8.678519146250924905e+02
3.930000000000000000e+02 8.849662427616925697e+02
3.940000000000000000e+02 7.821768967310550806e+02
3.950000000000000000e+02 6.428916367013375748e+02
3.960000000000000000e+02 5.579666738484402231e+02
3.970000000000000000e+02 7.741298773234235568e+02
3.980000000000000000e+02 7.640219866270397233e+02
3.990000000000000000e+02 6.671765353159858023e+02
4.000000000000000000e+02 7.142360148698882085e+02
4.010000000000000000e+02 5.063797776951643073e+02
4.020000000000000000e+02 4.710138594795549238e+02
4.030000000000000000e+02 5.435141875000000482e+02
4.040000000000000000e+02 5.355766874999999345e+02
4.050000000000000000e+02 5.616026304832709002e+02
4.060000000000000000e+02 5.953716651785705380e+02
4.070000000000000000e+02 6.209410625000003847e+02
4.080000000000000000e+02 6.037699315476193078e+02
4.090000000000000000e+02 6.312081101190473191e+02
4.100000000000000000e+02 6.224278518242748532e+02
4.110000000000000000e+02 5.789331882440482104e+02
4.120000000000000000e+02 5.573253013392861703e+02
4.130000000000000000e+02 4.811448436336556256e+02
4.140000000000000000e+02 4.658180558451235811e+02
4.150000000000000000e+02 5.552470804769008055e+02
4.160000000000000000e+02 8.205227883755626408e+02
4.170000000000000000e+02 7.970455584512280893e+02
4.180000000000000000e+02 7.970462488822656724e+02
4.190000000000000000e+02 9.222860000000026730e+02
4.200000000000000000e+02 1.179548295081961896e+03
4.210000000000000000e+02 1.238785910581221970e+03
4.220000000000000000e+02 1.234033467958271331e+03
4.230000000000000000e+02 1.255051214765101804e+03
4.240000000000000000e+02 1.617053451901564813e+03
4.250000000000000000e+02 1.796911516778522355e+03
4.260000000000000000e+02 1.895990093959730530e+03
4.270000000000000000e+02 1.968868130499624613e+03
4.280000000000000000e+02 2.098595945563014993e+03
4.290000000000000000e+02 2.087867098434002855e+03
4.300000000000000000e+02 2.007804340298506531e+03
4.310000000000000000e+02 1.912063295522386625e+03
4.320000000000000000e+02 2.043657325373135336e+03
4.330000000000000000e+02 2.071795018656716366e+03
4.340000000000000000e+02 2.002958719402987072e+03
4.350000000000000000e+02 1.845245499253731168e+03
4.360000000000000000e+02 1.820035797761194544e+03
4.370000000000000000e+02 1.700344252427188621e+03
4.380000000000000000e+02 1.626303398058250195e+03
4.390000000000000000e+02 1.711927631067963148e+03
4.400000000000000000e+02 1.634130020911129577e+03
4.410000000000000000e+02 1.555055887976103122e+03
4.420000000000000000e+02 1.470892730194320848e+03
4.430000000000000000e+02 1.377853118834079396e+03
4.440000000000000000e+02 1.593800887976104832e+03
4.450000000000000000e+02 1.566091191330343236e+03
4.460000000000000000e+02 1.498775137518684915e+03
4.470000000000000000e+02 1.617438067264577285e+03
4.480000000000000000e+02 1.586049386686612024e+03
4.490000000000000000e+02 1.473778565022421844e+03
4.500000000000000000e+02 1.411707587883323640e+03
4.510000000000000000e+02 1.560025463724760812e+03
4.520000000000000000e+02 1.383325142109200897e+03
4.530000000000000000e+02 1.460792213911739509e+03
4.540000000000000000e+02 1.524934765893793838e+03
4.550000000000000000e+02 1.193045461480926633e+03
4.560000000000000000e+02 1.164704142215568936e+03
4.570000000000000000e+02 1.217140583083830961e+03
4.580000000000000000e+02 1.283979064371257437e+03
4.590000000000000000e+02 1.284669184131736529e+03
4.600000000000000000e+02 1.344111315119761230e+03
4.610000000000000000e+02 1.362731494760479109e+03
4.620000000000000000e+02 1.400283779775280891e+03
4.630000000000000000e+02 1.557698761048691495e+03
4.640000000000000000e+02 1.656046919850186441e+03
4.650000000000000000e+02 1.762943384269661692e+03
4.660000000000000000e+02 1.909594176779027293e+03
4.670000000000000000e+02 2.141076573782776450e+03
4.680000000000000000e+02 2.053076878560717432e+03
4.690000000000000000e+02 1.888150546816478936e+03
4.700000000000000000e+02 1.786482667166413648e+03
4.710000000000000000e+02 1.955003656671660565e+03
4.720000000000000000e+02 1.689862655172420773e+03
4.730000000000000000e+02 1.582782999999999902e+03
4.740000000000000000e+02 1.492714608695650440e+03
4.750000000000000000e+02 1.111627652173912111e+03
4.760000000000000000e+02 1.020622105026257714e+03
4.770000000000000000e+02 9.362089677419364762e+02
4.780000000000000000e+02 8.740884291072768519e+02
4.790000000000000000e+02 8.969338904726176906e+02
4.800000000000000000e+02 6.536154988747186962e+02
4.810000000000000000e+02 5.811815945945952535e+02
4.820000000000000000e+02 5.962127276819196595e+02
4.830000000000000000e+02 5.116508372093032335e+02
4.840000000000000000e+02 4.776856231231233210e+02
4.850000000000000000e+02 4.989286904583012756e+02
4.860000000000000000e+02 5.173253483483500759e+02
4.870000000000000000e+02 4.393193423423436457e+02
4.880000000000000000e+02 3.966680487987993047e+02
4.890000000000000000e+02 4.006358174305028115e+02
4.900000000000000000e+02 3.918889504132253023e+02
4.910000000000000000e+02 2.776244876033046012e+02
4.920000000000000000e+02 4.570701773102930474e+02
4.930000000000000000e+02 4.483773789473681290e+02
4.940000000000000000e+02 3.590905326821940093e+02
4.950000000000000000e+02 3.821791878287000941e+02
4.960000000000000000e+02 3.390435067669170621e+02
4.970000000000000000e+02 4.003901285714306937e+02
4.980000000000000000e+02 4.557313544018032303e+02
4.990000000000000000e+02 3.455439954853252971e+02
5.000000000000000000e+02 4.246291578947358403e+02
5.010000000000000000e+02 4.754258156508653315e+02
5.020000000000000000e+02 5.110290609480823605e+02
5.030000000000000000e+02 5.564888051166299192e+02
5.040000000000000000e+02 4.323200617005251161e+02
5.050000000000000000e+02 4.545581376975176227e+02
5.060000000000000000e+02 5.031014680210684560e+02
5.070000000000000000e+02 4.378606854778031447e+02
5.080000000000000000e+02 3.329101912650587565e+02
5.090000000000000000e+02 3.077767161144579404e+02
5.100000000000000000e+02 3.351636566265058264e+02
5.110000000000000000e+02 3.864946634036152204e+02
5.120000000000000000e+02 4.377905971385559383e+02
5.130000000000000000e+02 4.495717475508663483e+02
5.140000000000000000e+02 4.644378364732502291e+02
5.150000000000000000e+02 5.124436827430215544e+02
5.160000000000000000e+02 3.345800806329987722e+02
5.170000000000000000e+02 3.782408944988760595e+02
5.180000000000000000e+02 4.684797618688775742e+02
5.190000000000000000e+02 4.656984856711796965e+02
5.200000000000000000e+02 2.197090437405653347e+02
5.210000000000000000e+02 2.141778929917131222e+02
5.220000000000000000e+02 2.704559977375567428e+02
5.230000000000000000e+02 2.737757993966814070e+02
5.240000000000000000e+02 2.214892232277531718e+02
5.250000000000000000e+02 1.065066166037703539e+02
5.260000000000000000e+02 3.675852941176584920e+01
5.270000000000000000e+02 6.657049811320993626e+01
5.280000000000000000e+02 1.499093660377353956e+02
5.290000000000000000e+02 2.320531018867945647e+02
5.300000000000000000e+02 2.321238641509393119e+02
5.310000000000000000e+02 1.473158791540793686e+02
5.320000000000000000e+02 2.095756978851992756e+02
5.330000000000000000e+02 1.959524928301877935e+02
5.340000000000000000e+02 1.754013126888216050e+02
5.350000000000000000e+02 1.657410770392733355e+02
5.360000000000000000e+02 1.310303519637464547e+02
5.370000000000000000e+02 7.157389123866997238e+01
5.380000000000000000e+02 3.791625925925919915e+01
5.390000000000000000e+02 5.867878231292996105e+01
5.400000000000000000e+02 1.878178601662844756e+02
5.410000000000000000e+02 7.537356193353707567e+01
5.420000000000000000e+02 5.576647770219294387e+01
5.430000000000000000e+02 1.245541838124039202e+02
5.440000000000000000e+02 5.312226248108787274e+01
5.450000000000000000e+02 2.887824489795860217e+01
5.460000000000000000e+02 2.914663842662689319e+01
5.470000000000000000e+02 3.564202269288881553e+01
5.480000000000000000e+02 1.542417095310065989e+01
5.490000000000000000e+02 4.988837670196801355e+01
5.500000000000000000e+02 7.139426172465988429e+01
5.510000000000000000e+02 9.002487282361956034e+01
5.520000000000000000e+02 1.354124579863741360e+02
5.530000000000000000e+02 1.448947118003025878e+02
5.540000000000000000e+02 8.091615215745781597e+01
5.550000000000000000e+02 1.201179485238397504e+01
5.560000000000000000e+02 2.998151476154334460e+01
5.570000000000000000e+02 7.172417348484826505e+01
5.580000000000000000e+02 8.068723088569267077e+01
5.590000000000000000e+02 8.026811363636365115e+01
5.600000000000000000e+02 9.257198333333036544e+01
5.610000000000000000e+02 2.998031666666607720e+01
5.620000000000000000e+02 6.997265454545215846e+01
5.630000000000000000e+02 1.188811439393941782e+02
5.640000000000000000e+02 1.092893078089455230e+02
5.650000000000000000e+02 6.226201440485009186e+01
5.660000000000000000e+02 1.051258915845345001e+02
5.670000000000000000e+02 1.289857429871118484e+02
5.680000000000000000e+02 9.865368081880320972e+01
5.690000000000000000e+02 1.864982600454851820e+02
5.700000000000000000e+02 1.896300356330559680e+02
5.710000000000000000e+02 1.330642549317156522e+02
5.720000000000000000e+02 4.820347839272171342e+01
5.730000000000000000e+02 4.053554814253194394e+01
5.740000000000000000e+02 1.079122959028814819e+02
5.750000000000000000e+02 1.364380812452547218e+02
5.760000000000000000e+02 1.143230288315623397e+02
5.770000000000000000e+02 9.649753566009172800e+01
5.780000000000000000e+02 5.636093242217386035e+01
5.790000000000000000e+02 1.035680060697971072e+02
5.800000000000000000e+02 1.987193333333324574e+02
5.810000000000000000e+02 2.213859999999990009e+02
5.820000000000000000e+02 1.039957644376883366e+02
5.830000000000000000e+02 1.308052482915760493e+02
5.840000000000000000e+02 1.766005896656500340e+02
5.850000000000000000e+02 2.627384194528877970e+01
5.860000000000000000e+02 4.898761579346983552e+01
5.870000000000000000e+02 3.700035486322263978e+01
5.880000000000000000e+02 5.580463498098583841e+01
5.890000000000000000e+02 1.693244468085109133e+02
5.900000000000000000e+02 1.830189756838905168e+02
5.910000000000000000e+02 1.323182182509489451e+02
5.920000000000000000e+02 8.464149961977174996e+01
5.930000000000000000e+02 9.145054144486658743e+01
5.940000000000000000e+02 2.138961688212979482e+02
5.950000000000000000e+02 4.402945019011460772e+02
5.960000000000000000e+02 5.434257688212945823e+02
5.970000000000000000e+02 4.319591217656159756e+02
5.980000000000000000e+02 1.512665799086830134e+02
5.990000000000000000e+02 1.765001742770168676e+02
6.000000000000000000e+02 1.803409710806674298e+02
6.010000000000000000e+02 1.163886461187215957e+02
6.020000000000000000e+02 1.197714467275494030e+02
6.030000000000000000e+02 2.277774478293958396e+02
6.040000000000000000e+02 2.828298584474885615e+02
6.050000000000000000e+02 3.030950388423472077e+02
6.060000000000000000e+02 3.710440106626067518e+02
6.070000000000000000e+02 3.864173846153851173e+02
6.080000000000000000e+02 3.797289215536929987e+02
6.090000000000000000e+02 3.643498673780482591e+02
6.100000000000000000e+02 3.542085564024380346e+02
6.110000000000000000e+02 3.320606905487797462e+02
6.120000000000000000e+02 3.351395914634150017e+02
6.130000000000000000e+02 3.263843917682919482e+02
6.140000000000000000e+02 2.897076379573177860e+02
6.150000000000000000e+02 3.916276074695119860e+02
6.160000000000000000e+02 4.037353780487806603e+02
6.170000000000000000e+02 4.282316353928276840e+02
6.180000000000000000e+02 5.017198306636132656e+02
6.190000000000000000e+02 5.539761235697949360e+02
6.200000000000000000e+02 6.337443707093825651e+02
6.210000000000000000e+02 5.786603203661370571e+02
6.220000000000000000e+02 4.960647389312849782e+02
6.230000000000000000e+02 8.474403114503835468e+02
6.240000000000000000e+02 6.531524343511529196e+02
6.250000000000000000e+02 7.164429496183131505e+02
6.260000000000000000e+02 8.943695022900774347e+02
6.270000000000000000e+02 7.402412580152752071e+02
6.280000000000000000e+02 1.077272550381674591e+03
6.290000000000000000e+02 1.062606277310920859e+03
6.300000000000000000e+02 9.061066488549611222e+02
6.310000000000000000e+02 8.809799427043418518e+02
6.320000000000000000e+02 1.354478032849502142e+03
6.330000000000000000e+02 1.433564887700533291e+03
6.340000000000000000e+02 1.432431266055049718e+03
6.350000000000000000e+02 1.525319028265852239e+03
6.360000000000000000e+02 1.538001992360580289e+03
6.370000000000000000e+02 1.623584075688069788e+03
6.380000000000000000e+02 1.659429592507646475e+03
6.390000000000000000e+02 1.643189126146786975e+03
6.400000000000000000e+02 1.719173071100915877e+03
6.410000000000000000e+02 1.858369108562689007e+03
6.420000000000000000e+02 1.931578496557000335e+03
6.430000000000000000e+02 1.954236528691658805e+03
6.440000000000000000e+02 1.999953437643456255e+03
6.450000000000000000e+02 1.986766272379494694e+03
6.460000000000000000e+02 1.980484163733741298e+03
6.470000000000000000e+02 2.031548723794955094e+03
6.480000000000000000e+02 2.179197660030626594e+03
6.490000000000000000e+02 2.114899803981624245e+03
6.500000000000000000e+02 2.251714882082699660e+03
6.510000000000000000e+02 2.318783384379779818e+03
6.520000000000000000e+02 2.250480214395104667e+03
6.530000000000000000e+02 2.758663981623266864e+03
6.540000000000000000e+02 2.832023494640121953e+03
6.550000000000000000e+02 2.921548434482763696e+03
6.560000000000000000e+02 3.085649591117918135e+03
6.570000000000000000e+02 3.046652653905055558e+03
6.580000000000000000e+02 3.412567480459760645e+03
6.590000000000000000e+02 3.734698444785277388e+03
6.600000000000000000e+02 4.037851831417627182e+03
6.610000000000000000e+02 4.469606620689636657e+03
6.620000000000000000e+02 4.595306464723923455e+03
6.630000000000000000e+02 4.912392158620693408e+03
6.640000000000000000e+02 5.380062812883440529e+03
6.650000000000000000e+02 5.936380880368070393e+03
6.660000000000000000e+02 6.466528886503050671e+03
6.670000000000000000e+02 7.478315121258602630e+03
6.680000000000000000e+02 8.500157103527593790e+03
6.690000000000000000e+02 9.444905298541829325e+03
6.700000000000000000e+02 1.095205495318496287e+04
6.710000000000000000e+02 1.255242367920185097e+04
6.720000000000000000e+02 1.437540125402917874e+04
6.730000000000000000e+02 1.655888813824886165e+04
6.740000000000000000e+02 1.933593038095235170e+04
6.750000000000000000e+02 2.173322944819644545e+04
6.760000000000000000e+02 2.421179423118274644e+04
6.770000000000000000e+02 2.681543427649759906e+04
6.780000000000000000e+02 2.950308171428565038e+04
6.790000000000000000e+02 3.081362088479265367e+04
6.800000000000000000e+02 3.186405640737895737e+04
6.810000000000000000e+02 3.229563231643625477e+04
6.820000000000000000e+02 3.196766633358955733e+04
6.830000000000000000e+02 3.121178009223671324e+04
6.840000000000000000e+02 2.975172369331280788e+04
6.850000000000000000e+02 2.773606213451195435e+04
6.860000000000000000e+02 2.540708856307699898e+04
6.870000000000000000e+02 2.327223010153846553e+04
6.880000000000000000e+02 2.081735161875487756e+04
6.890000000000000000e+02 1.885288059538464950e+04
6.900000000000000000e+02 1.721058608461536278e+04
6.910000000000000000e+02 1.558330948461530352e+04
6.920000000000000000e+02 1.388201333076923947e+04
6.930000000000000000e+02 1.226301723094689441e+04
6.940000000000000000e+02 1.116042489538460723e+04
6.950000000000000000e+02 1.059937487990756563e+04
6.960000000000000000e+02 9.185276342571254645e+03
6.970000000000000000e+02 8.667347899153204708e+03
6.980000000000000000e+02 8.070948457274838802e+03
6.990000000000000000e+02 7.297972929121726338e+03
7.000000000000000000e+02 6.756534562403699965e+03
7.010000000000000000e+02 6.112700745958421066e+03
7.020000000000000000e+02 5.552525412172563847e+03
7.030000000000000000e+02 4.976068569337429835e+03
7.040000000000000000e+02 4.277341949152541019e+03
7.050000000000000000e+02 4.159976771956855373e+03
7.060000000000000000e+02 3.878956865844256299e+03
7.070000000000000000e+02 3.517051436055474824e+03
7.080000000000000000e+02 3.109226257517356316e+03
7.090000000000000000e+02 2.591785239784136138e+03
7.100000000000000000e+02 2.590923832690826657e+03
7.110000000000000000e+02 2.287695488820329956e+03
7.120000000000000000e+02 1.825792439814815680e+03
7.130000000000000000e+02 1.884886575617282460e+03
7.140000000000000000e+02 1.585125810331548337e+03
7.150000000000000000e+02 1.568299580246911091e+03
7.160000000000000000e+02 1.508510444444444374e+03
7.170000000000000000e+02 1.122972024691355955e+03
7.180000000000000000e+02 1.189253660493828420e+03
7.190000000000000000e+02 1.322773122007719849e+03
7.200000000000000000e+02 1.269657447530869831e+03
7.210000000000000000e+02 1.016789223938222790e+03
7.220000000000000000e+02 9.072255173745223829e+02
7.230000000000000000e+02 9.686621999999980517e+02
7.240000000000000000e+02 9.101029521235509492e+02
7.250000000000000000e+02 7.597472318392536863e+02
7.260000000000000000e+02 6.305493956723278188e+02
7.270000000000000000e+02 7.982147111969097750e+02
7.280000000000000000e+02 6.297000548686294223e+02
7.290000000000000000e+02 5.744498446676961976e+02
7.300000000000000000e+02 8.542207488408039353e+02
7.310000000000000000e+02 8.705229126738798868e+02
7.320000000000000000e+02 7.055455475638004827e+02
7.330000000000000000e+02 5.358158809891770034e+02
7.340000000000000000e+02 4.530001508120685685e+02
7.350000000000000000e+02 5.529452397525166134e+02
7.360000000000000000e+02 5.414564245939669718e+02
7.370000000000000000e+02 5.548244988399078466e+02
7.380000000000000000e+02 5.696312523219812647e+02
7.390000000000000000e+02 5.609128329466348077e+02
7.400000000000000000e+02 6.308625622583127779e+02
7.410000000000000000e+02 6.189681749226019747e+02
7.420000000000000000e+02 6.057254907120741336e+02
7.430000000000000000e+02 6.025345804953539073e+02
7.440000000000000000e+02 5.329409272445814167e+02
7.450000000000000000e+02 5.562272997676209343e+02
7.460000000000000000e+02 5.484552352941179834e+02
7.470000000000000000e+02 4.926187312161092677e+02
7.480000000000000000e+02 3.979591185127771382e+02
7.490000000000000000e+02 6.118150441518265552e+02
7.500000000000000000e+02 5.289199721146376305e+02
7.510000000000000000e+02 5.188055925639058614e+02
7.520000000000000000e+02 6.772944534883631604e+02
7.530000000000000000e+02 4.509029806201596671e+02
7.540000000000000000e+02 6.411496976744173253e+02
7.550000000000000000e+02 7.967297906976762079e+02
7.560000000000000000e+02 7.867664271317765952e+02
7.570000000000000000e+02 5.523889077519456805e+02
7.580000000000000000e+02 8.889159069767422352e+02
7.590000000000000000e+02 7.834720643909978435e+02
7.600000000000000000e+02 6.750706307214928756e+02
7.610000000000000000e+02 8.284550186190851946e+02
7.620000000000000000e+02 8.526652591155943810e+02
7.630000000000000000e+02 9.731426214119541100e+02
7.640000000000000000e+02 1.023102407292474481e+03
7.650000000000000000e+02 1.003763826086956442e+03
7.660000000000000000e+02 1.005973453416149141e+03
7.670000000000000000e+02 1.140359364623736383e+03
7.680000000000000000e+02 1.056008604037276882e+03
7.690000000000000000e+02 9.905038594720462015e+02
7.700000000000000000e+02 1.114689615384616445e+03
7.710000000000000000e+02 1.141069568764569112e+03
7.720000000000000000e+02 9.680534782608684736e+02
7.730000000000000000e+02 1.019061110334106388e+03
7.740000000000000000e+02 1.159143682983689814e+03
7.750000000000000000e+02 7.958258896658742287e+02
7.760000000000000000e+02 1.104398733488740390e+03
7.770000000000000000e+02 1.192064909090909396e+03
7.780000000000000000e+02 1.166694989113530482e+03
7.790000000000000000e+02 1.177150906687405268e+03
7.800000000000000000e+02 1.260816536547432406e+03
7.810000000000000000e+02 1.229468278382581047e+03
7.820000000000000000e+02 1.150084027993778591e+03
7.830000000000000000e+02 1.071637172628305052e+03
7.840000000000000000e+02 1.057892227060652885e+03
7.850000000000000000e+02 1.139265008560308388e+03
7.860000000000000000e+02 1.237149217729390557e+03
7.870000000000000000e+02 1.201176470817118116e+03
7.880000000000000000e+02 9.675353112840497261e+02
7.890000000000000000e+02 1.086760992217894454e+03
7.900000000000000000e+02 1.084919579439253766e+03
7.910000000000000000e+02 1.017687276264594402e+03
7.920000000000000000e+02 9.388299750778817270e+02
7.930000000000000000e+02 9.296773271028038153e+02
7.940000000000000000e+02 8.387542554517129929e+02
7.950000000000000000e+02 8.330559065420565048e+02
7.960000000000000000e+02 8.363231028037373562e+02
7.970000000000000000e+02 7.900931161340612334e+02
7.980000000000000000e+02 8.100642774746689838e+02
7.990000000000000000e+02 6.108007609034236793e+02
8.000000000000000000e+02 4.949898051441933262e+02
8.010000000000000000e+02 5.527918316445823166e+02
8.020000000000000000e+02 7.829991582229115465e+02
8.030000000000000000e+02 5.598055845674265356e+02
8.040000000000000000e+02 5.591985663026530347e+02
8.050000000000000000e+02 5.976903822152864905e+02
8.060000000000000000e+02 5.362611730319562184e+02
8.070000000000000000e+02 5.153126149649261833e+02
8.080000000000000000e+02 3.943876396255901682e+02
8.090000000000000000e+02 3.063239437939122922e+02
8.100000000000000000e+02 2.421062932917324702e+02
8.110000000000000000e+02 1.298956848673989271e+02
8.120000000000000000e+02 1.582538688524590498e+02
8.130000000000000000e+02 8.726488758782448940e+01
8.140000000000000000e+02 2.781797892271629991e+01
8.150000000000000000e+02 4.520058548009408383e+01
8.160000000000000000e+02 1.047884074941479753e+02
8.170000000000000000e+02 5.660193442622890103e+01
8.180000000000000000e+02 2.887035546874999525e+01
8.190000000000000000e+02 6.358852578125268451e+01
8.200000000000000000e+02 1.745938320312453413e+02
8.210000000000000000e+02 6.340242578125287309e+01
8.220000000000000000e+02 6.707043984374885781e+01
8.230000000000000000e+02 1.470218617187493351e+02
8.240000000000000000e+02 2.235895715402643020e+02
8.250000000000000000e+02 9.995626426895825034e+01
8.260000000000000000e+02 3.377046286160954480e+01
8.270000000000000000e+02 8.893379827990875697e+01
8.280000000000000000e+02 1.591295762314301214e+02
8.290000000000000000e+02 1.354640695856147943e+02
8.300000000000000000e+02 1.742115285379213674e+02
8.310000000000000000e+02 2.420632816901421904e+02
8.320000000000000000e+02 2.296645868544599125e+02
8.330000000000000000e+02 1.465039107981226607e+02
8.340000000000000000e+02 1.033043802816914081e+02
8.350000000000000000e+02 6.118878403756057338e+01
8.360000000000000000e+02 5.897413615023473454e+01
8.370000000000000000e+02 1.132782873923290623e+02
8.380000000000000000e+02 2.151210830070475879e+02
8.390000000000000000e+02 2.564977470634282781e+02
8.400000000000000000e+02 1.061945364134685406e+02
8.410000000000000000e+02 1.660427877838700965e+02
8.420000000000000000e+02 2.776398809710260593e+02
8.430000000000000000e+02 7.489094435736382138e+01
8.440000000000000000e+02 1.806414184952983248e+01
8.450000000000000000e+02 1.200009859044676972e+02
8.460000000000000000e+02 1.620440909090880837e+02
8.470000000000000000e+02 9.467730407523492886e+01
8.480000000000000000e+02 1.304555172413804485e+02
8.490000000000000000e+02 1.881702117647040495e+02
8.500000000000000000e+02 1.582550579937331179e+02
8.510000000000000000e+02 1.283446603921566407e+02
8.520000000000000000e+02 1.731788094117629555e+02
8.530000000000000000e+02 5.018822117646664083e+01
8.540000000000000000e+02 1.598591294117677641e+01
8.550000000000000000e+02 6.804641176470089192e+01
8.560000000000000000e+02 1.669437103610651718e+02
8.570000000000000000e+02 2.377357040816302742e+02
8.580000000000000000e+02 6.102773882353230306e+01
8.590000000000000000e+02 4.435269858712659641e+01
8.600000000000000000e+02 7.995093249607513997e+01
8.610000000000000000e+02 1.003362762951330183e+02
8.620000000000000000e+02 1.332891805337515052e+02
8.630000000000000000e+02 1.636531516103682691e+02
8.640000000000000000e+02 1.768326370777690499e+02
8.650000000000000000e+02 1.315556342229129996e+02
8.660000000000000000e+02 1.444212568735973434e+01
8.670000000000000000e+02 1.587296355066814044e+02
8.680000000000000000e+02 1.006914819182395320e+02
8.690000000000000000e+02 1.057928790259194329e+02
8.700000000000000000e+02 1.813094433962272092e+02
8.710000000000000000e+02 1.578746949685530581e+02
8.720000000000000000e+02 9.252645597484401208e+01
8.730000000000000000e+02 9.902698113207570429e+01
8.740000000000000000e+02 1.255694937106920861e+02
8.750000000000000000e+02 1.360226446540880829e+02
8.760000000000000000e+02 1.300265754716978108e+02
8.770000000000000000e+02 6.967325019669536346e+01
8.780000000000000000e+02 8.078813926042494131e+01
8.790000000000000000e+02 1.542540094339632049e+02
8.800000000000000000e+02 2.422886960629936368e+02
8.810000000000000000e+02 1.794642866141738295e+02
8.820000000000000000e+02 9.400114398111547587e+01
8.830000000000000000e+02 4.908686614173205953e+01
8.840000000000000000e+02 4.184793312352431371e+01
8.850000000000000000e+02 2.932708339889874338e+01
8.860000000000000000e+02 1.155635385826767276e+02
8.870000000000000000e+02 1.280954472440943448e+02
8.880000000000000000e+02 1.714099030732878077e+02
8.890000000000000000e+02 2.620029842519683712e+02
8.900000000000000000e+02 2.534360551181099765e+02
8.910000000000000000e+02 2.380876855791958064e+02
8.920000000000000000e+02 2.451062765957451006e+02
8.930000000000000000e+02 2.168384176516923674e+02
8.940000000000000000e+02 1.192226650906222005e+02
8.950000000000000000e+02 9.381052955082719791e+01
8.960000000000000000e+02 3.852205993690918717e+01
8.970000000000000000e+02 6.326943848580140184e+01
8.980000000000000000e+02 1.033330449172613044e+02
8.990000000000000000e+02 3.794445110409710509e+01
9.000000000000000000e+02 1.103458706624615502e+02
9.010000000000000000e+02 1.355297782162588476e+02
9.020000000000000000e+02 1.292904487381711647e+02
9.030000000000000000e+02 1.271931057616388614e+02
9.040000000000000000e+02 1.949918429360699008e+02
9.050000000000000000e+02 1.005559502762463069e+02
9.060000000000000000e+02 1.630402580899748841e+02
9.070000000000000000e+02 2.755251010260456610e+02
9.080000000000000000e+02 3.184307205998471773e+02
9.090000000000000000e+02 1.425017545382759465e+02
9.100000000000000000e+02 6.628417693523100240e+01
9.110000000000000000e+02 6.993943127961941286e+01
9.120000000000000000e+02 1.631578151658761158e+02
9.130000000000000000e+02 3.109390947867275941e+02
9.140000000000000000e+02 1.757400426540343119e+02
9.150000000000000000e+02 2.295671563981016163e+02
9.160000000000000000e+02 2.496385217391307947e+02
9.170000000000000000e+02 1.852526300395255987e+02
9.180000000000000000e+02 6.014155177865719537e+01
9.190000000000000000e+02 1.545771249011878581e+02
9.200000000000000000e+02 1.671578031620549609e+02
9.210000000000000000e+02 2.110953747035615606e+02
9.220000000000000000e+02 2.539007579113860231e+02
9.230000000000000000e+02 1.260479098101212116e+02
9.240000000000000000e+02 1.391052270569625762e+02
9.250000000000000000e+02 2.122268260869603296e+02
9.260000000000000000e+02 2.019547007125843834e+02
9.270000000000000000e+02 1.127233686708874387e+02
9.280000000000000000e+02 2.441584952531649151e+02
9.290000000000000000e+02 2.309652175632912758e+02
9.300000000000000000e+02 2.849674354710980992e+02
9.310000000000000000e+02 3.736939881235141456e+02
9.320000000000000000e+02 4.158596935866914350e+02
9.330000000000000000e+02 2.170378408551052871e+02
9.340000000000000000e+02 2.861298361045110141e+02
9.350000000000000000e+02 5.025357519809820133e+02
9.360000000000000000e+02 5.454689358669758121e+02
9.370000000000000000e+02 1.902451426307439135e+02
9.380000000000000000e+02 5.409907844691114178e+02
9.390000000000000000e+02 3.900829080824055382e+02
9.400000000000000000e+02 2.377699310071367336e+02
9.410000000000000000e+02 2.904184683042829533e+02
9.420000000000000000e+02 6.080669754163403695e+02
9.430000000000000000e+02 4.759519873116580584e+02
9.440000000000000000e+02 3.996938652931874572e+02
9.450000000000000000e+02 3.916693378271195343e+02
9.460000000000000000e+02 4.530517841269814880e+02
9.470000000000000000e+02 5.738676571428554780e+02
9.480000000000000000e+02 3.849061911181580626e+02
9.490000000000000000e+02 4.027162777777800216e+02
9.500000000000000000e+02 4.051811022997624150e+02
9.510000000000000000e+02 3.544691452380876626e+02
9.520000000000000000e+02 4.988239071428506577e+02
9.530000000000000000e+02 5.000340698412700817e+02
9.540000000000000000e+02 4.153182986497271827e+02
9.550000000000000000e+02 4.102683015872946726e+02
9.560000000000000000e+02 5.217464495631480759e+02
9.570000000000000000e+02 4.580196822875332714e+02
9.580000000000000000e+02 5.519943232724401696e+02
9.590000000000000000e+02 5.411895544082577771e+02
9.600000000000000000e+02 5.558853669579068537e+02
9.610000000000000000e+02 6.576891526232091110e+02
9.620000000000000000e+02 4.275858139904656241e+02
9.630000000000000000e+02 5.005541945988841235e+02
9.640000000000000000e+02 6.332110651828297705e+02
9.650000000000000000e+02 6.455784364069893400e+02
9.660000000000000000e+02 4.685082490055694961e+02
9.670000000000000000e+02 6.826196252983388604e+02
9.680000000000000000e+02 6.258646248012690876e+02
9.690000000000000000e+02 5.860548806682576242e+02
9.700000000000000000e+02 6.582645218774788418e+02
9.710000000000000000e+02 8.313479522673018209e+02
9.720000000000000000e+02 6.044028448687244008e+02
9.730000000000000000e+02 7.050793086714425044e+02
9.740000000000000000e+02 7.963275298329359657e+02
9.750000000000000000e+02 8.201521472929940728e+02
9.760000000000000000e+02 8.429164824840743222e+02
9.770000000000000000e+02 8.947938710191074279e+02
9.780000000000000000e+02 7.608677995226694293e+02
9.790000000000000000e+02 7.772682135458246648e+02
9.800000000000000000e+02 8.875710358280229002e+02
9.810000000000000000e+02 7.833422780876544493e+02
9.820000000000000000e+02 6.618793298804827145e+02
9.830000000000000000e+02 9.072922420382094515e+02
9.840000000000000000e+02 8.646101314741066517e+02
9.850000000000000000e+02 5.984608007968120091e+02
9.860000000000000000e+02 8.027110000000000127e+02
9.870000000000000000e+02 7.626296602870819470e+02
9.880000000000000000e+02 6.066045139442262553e+02
9.890000000000000000e+02 6.646309976076483963e+02
9.900000000000000000e+02 9.026958397129196783e+02
9.910000000000000000e+02 8.742436866028723443e+02
9.920000000000000000e+02 5.414142846889880047e+02
9.930000000000000000e+02 6.018601674641212185e+02
9.940000000000000000e+02 7.834643939393963592e+02
9.950000000000000000e+02 9.101847725458897003e+02
9.960000000000000000e+02 9.486181324820415739e+02
9.970000000000000000e+02 7.827347358339957282e+02
9.980000000000000000e+02 8.060823894652841091e+02
9.990000000000000000e+02 7.997322458100593394e+02
1.000000000000000000e+03 7.546529209896129942e+02
1.001000000000000000e+03 1.038178858739030602e+03
1.002000000000000000e+03 6.361325527156694761e+02
1.003000000000000000e+03 7.803513961661254825e+02
1.004000000000000000e+03 8.689642332268329028e+02
1.005000000000000000e+03 6.759252555910587716e+02
1.006000000000000000e+03 8.041265335463235715e+02
1.007000000000000000e+03 8.808995686900968849e+02
1.008000000000000000e+03 8.540751582733785199e+02
1.009000000000000000e+03 8.659017220447315140e+02
1.010000000000000000e+03 9.380688872901691866e+02
1.011000000000000000e+03 8.314309976019177384e+02
1.012000000000000000e+03 7.639798561151062586e+02
1.013000000000000000e+03 7.827592128000017055e+02
1.014000000000000000e+03 8.446200215827365128e+02
1.015000000000000000e+03 8.760770479999929421e+02
1.016000000000000000e+03 7.476562479999929565e+02
1.017000000000000000e+03 1.030979512000016939e+03
1.018000000000000000e+03 1.171959904000003462e+03
1.019000000000000000e+03 9.905692479999729585e+02
1.020000000000000000e+03 6.486705200000170635e+02
1.021000000000000000e+03 9.605785200000170789e+02
1.022000000000000000e+03 1.154877323458773844e+03
1.023000000000000000e+03 1.091100606885505385e+03
1.024000000000000000e+03 1.076273558046437074e+03
1.025000000000000000e+03 1.223409959167334364e+03
1.026000000000000000e+03 1.197907156925541358e+03
1.027000000000000000e+03 1.225294052041631630e+03
1.028000000000000000e+03 1.142291516025652982e+03
1.029000000000000000e+03 1.069770533653846087e+03
1.030000000000000000e+03 1.132854693910275500e+03
1.031000000000000000e+03 1.441481296474366445e+03
1.032000000000000000e+03 1.192968968750004024e+03
1.033000000000000000e+03 1.151714872596150826e+03
1.034000000000000000e+03 1.295727885416664776e+03
1.035000000000000000e+03 1.424088410585374049e+03
1.036000000000000000e+03 1.099795708099426292e+03
1.037000000000000000e+03 1.216626469927824473e+03
1.038000000000000000e+03 1.160181603849248177e+03
1.039000000000000000e+03 1.203853323175609830e+03
1.040000000000000000e+03 1.445888612359558238e+03
1.041000000000000000e+03 1.670927938202237783e+03
1.042000000000000000e+03 1.161029980753767632e+03
1.043000000000000000e+03 1.226440720706276807e+03
1.044000000000000000e+03 1.427165118780094417e+03
1.045000000000000000e+03 1.456184139646881249e+03
1.046000000000000000e+03 1.240556531300148663e+03
1.047000000000000000e+03 1.196715040160644094e+03
1.048000000000000000e+03 1.172830634028892064e+03
1.049000000000000000e+03 1.396021407228926819e+03
1.050000000000000000e+03 1.669230024096393208e+03
1.051000000000000000e+03 1.370737370281136691e+03
1.052000000000000000e+03 1.568647410441760485e+03
1.053000000000000000e+03 1.586242544578312845e+03
1.054000000000000000e+03 1.524067362540193471e+03
1.055000000000000000e+03 1.467548934887458699e+03
1.056000000000000000e+03 1.492258117269076138e+03
1.057000000000000000e+03 1.778779402409663362e+03
1.058000000000000000e+03 1.771814761061946683e+03
1.059000000000000000e+03 1.762632374598069418e+03
1.060000000000000000e+03 1.795980262057876871e+03
1.061000000000000000e+03 1.776373501206763876e+03
1.062000000000000000e+03 1.833684844730489203e+03
1.063000000000000000e+03 1.779442310539019672e+03
1.064000000000000000e+03 1.828329344328243451e+03
1.065000000000000000e+03 1.898794789219627546e+03
1.066000000000000000e+03 1.803890625100576699e+03
1.067000000000000000e+03 1.659305749798879788e+03
1.068000000000000000e+03 1.938573053140093407e+03
1.069000000000000000e+03 1.866628888888880738e+03
1.070000000000000000e+03 1.654243888888892343e+03
1.071000000000000000e+03 1.734533067632861957e+03
1.072000000000000000e+03 1.919158671497568093e+03
1.073000000000000000e+03 1.961446811594201336e+03
1.074000000000000000e+03 1.809686190169234578e+03
1.075000000000000000e+03 1.740140789855062394e+03
1.076000000000000000e+03 1.888602979854960495e+03
1.077000000000000000e+03 1.598740771958099685e+03
1.078000000000000000e+03 1.693232994359388613e+03
1.079000000000000000e+03 1.788690027397261701e+03
1.080000000000000000e+03 1.796948608064514247e+03
1.081000000000000000e+03 1.746939957292507870e+03
1.082000000000000000e+03 1.847143019339245711e+03
1.083000000000000000e+03 1.716914307258060944e+03
1.084000000000000000e+03 1.866117811290327154e+03
1.085000000000000000e+03 1.861886491935480763e+03
1.086000000000000000e+03 1.609947104116222818e+03
1.087000000000000000e+03 1.633816353510895397e+03
1.088000000000000000e+03 1.677388269354837121e+03
1.089000000000000000e+03 1.587481022598877871e+03
1.090000000000000000e+03 1.543704417271989541e+03
1.091000000000000000e+03 1.556051891041167664e+03
1.092000000000000000e+03 1.467036798061372338e+03
1.093000000000000000e+03 1.278028720516954536e+03
1.094000000000000000e+03 1.291185004842616081e+03
1.095000000000000000e+03 1.415204928917605002e+03
1.096000000000000000e+03 1.475666455573518306e+03
1.097000000000000000e+03 1.309725499192238885e+03
1.098000000000000000e+03 1.377690765751214030e+03
1.099000000000000000e+03 1.379141500807754028e+03
1.100000000000000000e+03 1.439624631663971513e+03
1.101000000000000000e+03 1.447696481810834484e+03
1.102000000000000000e+03 1.347952075990337107e+03
1.103000000000000000e+03 1.785960968472119475e+03
1.104000000000000000e+03 1.691688234438163818e+03
1.105000000000000000e+03 1.758680965238482486e+03
1.106000000000000000e+03 1.747274578819708267e+03
1.107000000000000000e+03 1.518747449029124482e+03
1.108000000000000000e+03 1.659021720873772665e+03
1.109000000000000000e+03 1.525527487055017446e+03
1.110000000000000000e+03 1.470484275666936355e+03
1.111000000000000000e+03 1.538088990283397379e+03
1.112000000000000000e+03 1.643037483009706875e+03
1.113000000000000000e+03 1.557384570388354859e+03
1.114000000000000000e+03 1.696862271844665656e+03
1.115000000000000000e+03 1.866596802429146919e+03
1.116000000000000000e+03 1.820139503643730450e+03
1.117000000000000000e+03 1.578952902834007091e+03
1.118000000000000000e+03 1.378930221052629804e+03
1.119000000000000000e+03 1.400953702834007800e+03
1.120000000000000000e+03 1.124541307692282317e+03
1.121000000000000000e+03 9.943421831442470875e+02
1.122000000000000000e+03 1.041255356564017347e+03
1.123000000000000000e+03 1.092598445705013773e+03
1.124000000000000000e+03 8.275935834683684789e+02
1.125000000000000000e+03 8.588071329011345370e+02
1.126000000000000000e+03 6.180662965964351088e+02
1.127000000000000000e+03 4.747840900243434703e+02
1.128000000000000000e+03 6.035390024310933086e+02
1.129000000000000000e+03 2.216451612642032387e+02
1.130000000000000000e+03 4.121462554744474005e+02
1.131000000000000000e+03 4.655138532035682601e+02
1.132000000000000000e+03 4.148626444805147457e+02
1.133000000000000000e+03 2.991200486617933620e+02
1.134000000000000000e+03 1.057139204545328965e+02
1.135000000000000000e+03 2.272796672077825235e+02
1.136000000000000000e+03 5.050911720779040479e+02
1.137000000000000000e+03 4.218190535714420548e+02
1.138000000000000000e+03 1.815167711038949392e+02
1.139000000000000000e+03 2.847288668831137670e+02
1.140000000000000000e+03 7.186685389609573349e+01
1.141000000000000000e+03 4.861236149472016166e+01
1.142000000000000000e+03 7.300830681818391099e+01
1.143000000000000000e+03 6.463811210397474838e+01
1.144000000000000000e+03 1.856149147035750602e+01
1.145000000000000000e+03 1.178458131600411321e+02
1.146000000000000000e+03 2.616838300813116689e+02
1.147000000000000000e+03 1.502672542648092531e+02
1.148000000000000000e+03 6.137153170732135266e+01
1.149000000000000000e+03 9.725777073170456788e+01
1.150000000000000000e+03 4.648403414634506703e+01
1.151000000000000000e+03 1.411133024390265973e+02
1.152000000000000000e+03 8.649750243902357738e+01
1.153000000000000000e+03 1.346228813008119403e+02
1.154000000000000000e+03 2.311129869812871505e+02
1.155000000000000000e+03 1.757590968266908078e+02
1.156000000000000000e+03 1.358388364524041378e+02
1.157000000000000000e+03 4.206676159478946886e+01
1.158000000000000000e+03 6.559462164361892178e+01
1.159000000000000000e+03 8.449334255491977785e+01
1.160000000000000000e+03 3.687758794788132377e+01
1.161000000000000000e+03 2.284590211726268194e+02
1.162000000000000000e+03 1.114878958502977184e+02
1.163000000000000000e+03 1.592722475570019185e+02
1.164000000000000000e+03 1.852088729641671421e+02
1.165000000000000000e+03 1.457714132029324219e+02
1.166000000000000000e+03 1.998597459283393505e+02
1.167000000000000000e+03 1.934884104234525353e+02
1.168000000000000000e+03 2.823633553382238688e+02
1.169000000000000000e+03 2.619055732899088866e+02
1.170000000000000000e+03 1.523398704156528538e+02
1.171000000000000000e+03 7.333781810766861042e+01
1.172000000000000000e+03 1.121330872756911390e+02
1.173000000000000000e+03 1.534696405867985334e+02
1.174000000000000000e+03 7.829303096984195065e+01
1.175000000000000000e+03 1.012966068515552394e+02
1.176000000000000000e+03 2.612004641109257363e+02
1.177000000000000000e+03 2.086449991843400369e+02
1.178000000000000000e+03 1.805185734094594920e+02
1.179000000000000000e+03 1.971874233278965107e+02
1.180000000000000000e+03 1.464331599999967182e+02
1.181000000000000000e+03 5.264984828711077114e+01
1.182000000000000000e+03 4.644105224488941275e+01
1.183000000000000000e+03 3.512598277551160777e+02
1.184000000000000000e+03 3.057344187755142002e+02
1.185000000000000000e+03 1.693482163265356917e+02
1.186000000000000000e+03 1.628807140522945360e+02
1.187000000000000000e+03 3.400574742857171486e+02
1.188000000000000000e+03 3.909382906122420991e+02
1.189000000000000000e+03 1.448936241830078870e+02
1.190000000000000000e+03 2.213329869281142237e+02
1.191000000000000000e+03 2.879409705882348476e+02
1.192000000000000000e+03 2.410156405228780727e+02
1.193000000000000000e+03 2.038264137367142723e+02
1.194000000000000000e+03 1.132736745707257455e+02
1.195000000000000000e+03 8.794346606704748126e+01
1.196000000000000000e+03 1.497468529411753480e+02
1.197000000000000000e+03 2.304498013082553598e+02
1.198000000000000000e+03 2.305851252045906676e+02
1.199000000000000000e+03 4.187726923077417496e+01
1.200000000000000000e+03 4.079398626328733144e+02
1.201000000000000000e+03 3.280026497544930635e+02
1.202000000000000000e+03 3.372567661488293425e+02
1.203000000000000000e+03 4.064419762683758677e+02
1.204000000000000000e+03 3.265959656304353587e+01
1.205000000000000000e+03 3.845262086742768020e+02
1.206000000000000000e+03 3.181498599508756797e+02
1.207000000000000000e+03 3.948831898526793793e+02
1.208000000000000000e+03 5.237805921375919525e+02
1.209000000000000000e+03 4.930352530712700059e+02
1.210000000000000000e+03 3.108558918919093799e+02
1.211000000000000000e+03 4.468475806715657654e+02
1.212000000000000000e+03 4.082492186732296204e+02
1.213000000000000000e+03 3.508628042588053404e+02
1.214000000000000000e+03 3.050742000000077496e+02
1.215000000000000000e+03 1.929583983606669335e+02
1.216000000000000000e+03 3.155665950819756063e+02
1.217000000000000000e+03 2.451352983606509213e+02
1.218000000000000000e+03 2.723174704918057500e+02
1.219000000000000000e+03 3.698265549180329117e+02
1.220000000000000000e+03 4.219241368852480605e+02
1.221000000000000000e+03 3.171528254098406023e+02
1.222000000000000000e+03 5.841674708777452452e+02
1.223000000000000000e+03 3.177486045939229484e+02
1.224000000000000000e+03 2.004131698113306470e+02
1.225000000000000000e+03 4.391434733388093150e+02
1.226000000000000000e+03 7.690015098522239896e+02
1.227000000000000000e+03 4.903882093596301388e+02
1.228000000000000000e+03 3.785733527481513079e+02
1.229000000000000000e+03 4.307909310344879259e+02
1.230000000000000000e+03 4.708449523809537141e+02
1.231000000000000000e+03 3.920086436781655834e+02
1.232000000000000000e+03 2.738052512315377953e+02
1.233000000000000000e+03 3.995137898193789852e+02
1.234000000000000000e+03 4.743466064091996941e+02
1.235000000000000000e+03 4.616922900575203244e+02
1.236000000000000000e+03 3.702417832512288101e+02
1.237000000000000000e+03 2.919166984387788375e+02
1.238000000000000000e+03 5.676718340181014355e+02
1.239000000000000000e+03 3.578161504934199684e+02
1.240000000000000000e+03 3.557752029580988165e+02
1.241000000000000000e+03 4.444253651315829643e+02
1.242000000000000000e+03 4.913293492193917018e+02
1.243000000000000000e+03 4.629746529605123442e+02
1.244000000000000000e+03 3.306473503289466294e+02
1.245000000000000000e+03 3.351862000000014064e+02
1.246000000000000000e+03 5.284362927631603952e+02
1.247000000000000000e+03 6.965985789473685372e+02
1.248000000000000000e+03 5.898961028806422746e+02
1.249000000000000000e+03 8.215453909469488281e+01
1.250000000000000000e+03 5.131164938271489291e+02
1.251000000000000000e+03 4.166692510287952018e+02
1.252000000000000000e+03 3.265650288065848486e+02
1.253000000000000000e+03 3.983153333333285673e+02
1.254000000000000000e+03 4.603704950576579336e+02
1.255000000000000000e+03 2.733400172981761216e+02
1.256000000000000000e+03 2.595672380560128545e+02
1.257000000000000000e+03 1.946999316309786536e+02
1.258000000000000000e+03 1.190262322899516647e+02
1.259000000000000000e+03 9.842671416804141415e+01
1.260000000000000000e+03 1.614296141797140649e+02
1.261000000000000000e+03 8.522104039570530176e+01
1.262000000000000000e+03 2.126929258649079486e+02
1.263000000000000000e+03 3.644555861500349465e+02
1.264000000000000000e+03 4.222830758450133999e+02
1.265000000000000000e+03 3.720037221764222295e+02
1.266000000000000000e+03 3.831949835119543195e+02
1.267000000000000000e+03 3.504000585808563528e+02
1.268000000000000000e+03 2.692275845012294440e+02
1.269000000000000000e+03 2.841134389439039865e+02
1.270000000000000000e+03 3.232061633663279849e+02
1.271000000000000000e+03 2.280677062706133142e+02
1.272000000000000000e+03 6.801160066008083049e+01
1.273000000000000000e+03 2.327608613861194158e+02
1.274000000000000000e+03 3.190676837324481880e+02
1.275000000000000000e+03 2.429630594550000637e+02
1.276000000000000000e+03 1.451361221122194536e+02
1.277000000000000000e+03 2.700457085053870401e+02
1.278000000000000000e+03 7.097221552434430691e+01
1.279000000000000000e+03 3.179891743801900930e+02
1.280000000000000000e+03 3.242032947976780974e+02
1.281000000000000000e+03 2.989929090909151910e+02
1.282000000000000000e+03 4.037094574731620469e+02
1.283000000000000000e+03 3.593624429752055676e+02
1.284000000000000000e+03 1.407541785124022056e+02
1.285000000000000000e+03 2.762692834710622947e+02
1.286000000000000000e+03 4.042779272125734451e+02
1.287000000000000000e+03 3.158690661156732062e+02
1.288000000000000000e+03 1.008916253101909888e+02
1.289000000000000000e+03 4.167617659222514703e+02
1.290000000000000000e+03 1.322458586776937182e+02
1.291000000000000000e+03 2.718727485525030829e+02
1.292000000000000000e+03 3.204974370860964541e+02
1.293000000000000000e+03 1.821979114971003355e+02
1.294000000000000000e+03 1.054157574503251880e+02
1.295000000000000000e+03 4.275324793046075342e+02
1.296000000000000000e+03 4.347236724565750592e+02
1.297000000000000000e+03 1.976650943708528985e+02
1.298000000000000000e+03 1.677478261589292003e+02
1.299000000000000000e+03 3.463467499999994743e+02
1.300000000000000000e+03 3.486348906379425898e+02
1.301000000000000000e+03 2.847401101905580276e+02
1.302000000000000000e+03 2.667003637116814616e+02
1.303000000000000000e+03 1.947547814569520028e+02
1.304000000000000000e+03 1.129747522783744813e+02
1.305000000000000000e+03 5.458169511184371459e+01
1.306000000000000000e+03 1.862785074626813753e+01
1.307000000000000000e+03 2.148666567164330559e+02
1.308000000000000000e+03 3.186897647058835332e+02
1.309000000000000000e+03 1.736185970149162472e+02
1.310000000000000000e+03 1.894609278607082956e+02
1.311000000000000000e+03 4.330795663349992992e+02
1.312000000000000000e+03 2.137378134328316435e+02
1.313000000000000000e+03 1.111383109452805940e+02
1.314000000000000000e+03 2.650344705394111884e+02
1.315000000000000000e+03 2.557701343283531514e+02
1.316000000000000000e+03 1.330770829875492609e+02
1.317000000000000000e+03 1.002474771784119696e+02
1.318000000000000000e+03 2.867620000000000005e+02
1.319000000000000000e+03 1.009702987551755200e+02
1.320000000000000000e+03 1.505599543568432352e+02
1.321000000000000000e+03 1.630025980066477302e+02
1.322000000000000000e+03 1.690152954356836688e+02
1.323000000000000000e+03 2.358679676079686374e+02
1.324000000000000000e+03 1.349119875415193519e+02
1.325000000000000000e+03 1.358423388704317176e+02
1.326000000000000000e+03 3.562057591361962636e+02
1.327000000000000000e+03 3.253682244389102607e+02
1.328000000000000000e+03 1.419409202657807327e+02
1.329000000000000000e+03 1.196717356608494498e+02
1.330000000000000000e+03 1.607565236907755093e+02
1.331000000000000000e+03 1.088749110556896085e+02
1.332000000000000000e+03 2.763636159601240365e+02
1.333000000000000000e+03 2.261656417290056140e+02
1.334000000000000000e+03 8.012182029949079265e+01
1.335000000000000000e+03 1.818432252701537379e+02
1.336000000000000000e+03 2.304325852036543552e+02
1.337000000000000000e+03 1.348595923460963206e+02
1.338000000000000000e+03 2.198450540765299479e+02
1.339000000000000000e+03 1.837152662229732414e+02
1.340000000000000000e+03 1.591413180682567088e+02
1.341000000000000000e+03 4.048545008319574094e+02
1.342000000000000000e+03 2.712421880199771067e+02
1.343000000000000000e+03 2.006048184846024753e+02
1.344000000000000000e+03 2.039809258950881485e+02
1.345000000000000000e+03 2.919984329725363068e+02
1.346000000000000000e+03 3.813821040799324464e+02
1.347000000000000000e+03 3.879632100000072796e+02
1.348000000000000000e+03 5.160557100000023638e+02
1.349000000000000000e+03 4.446419367194005758e+02
1.350000000000000000e+03 4.892163466666636396e+02
1.351000000000000000e+03 6.710801599999815608e+02
1.352000000000000000e+03 7.342564150000155223e+02
1.353000000000000000e+03 4.520883966666727360e+02
1.354000000000000000e+03 5.272517300000031355e+02
1.355000000000000000e+03 7.166183744787294927e+02
1.356000000000000000e+03 3.337724800000337950e+02
1.357000000000000000e+03 2.541510917431176040e+02
1.358000000000000000e+03 5.506219507923360652e+02
1.359000000000000000e+03 6.650149165971639604e+02
1.360000000000000000e+03 6.081933986655575382e+02
1.361000000000000000e+03 6.193444908180308630e+02
1.362000000000000000e+03 5.357745871559587840e+02
1.363000000000000000e+03 5.131052370617677525e+02
1.364000000000000000e+03 6.076707963272050392e+02
1.365000000000000000e+03 7.302956510851372514e+02
1.366000000000000000e+03 6.182438981636100834e+02
1.367000000000000000e+03 7.623746761268887440e+02
1.368000000000000000e+03 7.948343157894734077e+02
1.369000000000000000e+03 7.038654482470722087e+02
1.370000000000000000e+03 5.205858646616359238e+02
1.371000000000000000e+03 3.507189122807035915e+02
1.372000000000000000e+03 5.226988621554062320e+02
1.373000000000000000e+03 4.242819398496225176e+02
1.374000000000000000e+03 5.071180066889698992e+02
1.375000000000000000e+03 6.529599423558931903e+02
1.376000000000000000e+03 6.917787341137139947e+02
1.377000000000000000e+03 5.535386814381245131e+02
1.378000000000000000e+03 4.643087483277670344e+02
1.379000000000000000e+03 4.816652282608691849e+02
1.380000000000000000e+03 6.064702700668979105e+02
1.381000000000000000e+03 6.675663235785951883e+02
1.382000000000000000e+03 6.005832276150686084e+02
1.383000000000000000e+03 5.179491322175778123e+02
1.384000000000000000e+03 7.778144041841187573e+02
1.385000000000000000e+03 7.798019038461537775e+02
1.386000000000000000e+03 5.457236658291581080e+02
1.387000000000000000e+03 3.475710627615058002e+02
1.388000000000000000e+03 4.334553071129935233e+02
1.389000000000000000e+03 7.216278123953014756e+02
1.390000000000000000e+03 5.969667278056863324e+02
1.391000000000000000e+03 6.963896758793914614e+02
1.392000000000000000e+03 4.847314154103911505e+02
1.393000000000000000e+03 3.959503475711895248e+02
1.394000000000000000e+03 5.630682286432322599e+02
1.395000000000000000e+03 7.234778541491714350e+02
1.396000000000000000e+03 3.276973015075585067e+02
1.397000000000000000e+03 5.917584405359928041e+02
1.398000000000000000e+03 4.419700343671607925e+02
1.399000000000000000e+03 4.406308382229593690e+02
1.400000000000000000e+03 4.512438155909529769e+02
1.401000000000000000e+03 4.506504496644167261e+02
1.402000000000000000e+03 6.576995750209645166e+02
1.403000000000000000e+03 4.994363730092272817e+02
1.404000000000000000e+03 4.463530000000019413e+02
1.405000000000000000e+03 2.635765234899458278e+02
1.406000000000000000e+03 3.040981073825319072e+02
1.407000000000000000e+03 4.223541140939787510e+02
1.408000000000000000e+03 1.848256137699324881e+02
1.409000000000000000e+03 3.024788463475952653e+02
1.410000000000000000e+03 5.537884840603746852e+02
1.411000000000000000e+03 3.152644617968038006e+02
1.412000000000000000e+03 3.275526817800424055e+02
1.413000000000000000e+03 3.955979244332291955e+02
1.414000000000000000e+03 7.412943193277661180e+01
1.415000000000000000e+03 2.734168268907506558e+02
1.416000000000000000e+03 3.886485776658208806e+02
1.417000000000000000e+03 5.381743470588322680e+02
1.418000000000000000e+03 4.101096529411493066e+02
1.419000000000000000e+03 4.143103579832117020e+02
1.420000000000000000e+03 6.880508571428597406e+02
1.421000000000000000e+03 2.960390596638615648e+02
1.422000000000000000e+03 3.722667907562949949e+02
1.423000000000000000e+03 2.677405121951219371e+02
1.424000000000000000e+03 3.595636173254837331e+02
1.425000000000000000e+03 4.458083204373463673e+02
1.426000000000000000e+03 3.652561707317172477e+02
1.427000000000000000e+03 2.619126383515606449e+02
1.428000000000000000e+03 4.158495601345614432e+02
1.429000000000000000e+03 3.369380109335501174e+02
1.430000000000000000e+03 4.508794191919287186e+02
1.431000000000000000e+03 4.331826742424329382e+02
1.432000000000000000e+03 3.162030143097581458e+02
1.433000000000000000e+03 3.926769999999989409e+02
1.434000000000000000e+03 3.304042727272769753e+02
1.435000000000000000e+03 2.816583005050491693e+02
1.436000000000000000e+03 6.326584498736176556e+02
1.437000000000000000e+03 8.225060269360270695e+02
1.438000000000000000e+03 5.907062426284686580e+02
1.439000000000000000e+03 2.105913395113538513e+02
1.440000000000000000e+03 5.555533310867739374e+02
1.441000000000000000e+03 5.774050581297370854e+02
1.442000000000000000e+03 4.545141382799388339e+02
1.443000000000000000e+03 5.128000429654656500e+02
1.444000000000000000e+03 5.568853406408065894e+02
1.445000000000000000e+03 4.594597622259727245e+02
1.446000000000000000e+03 3.990173946037095334e+02
1.447000000000000000e+03 3.768243086003354279e+02
1.448000000000000000e+03 4.268687436762212997e+02
1.449000000000000000e+03 4.289014064080946582e+02
1.450000000000000000e+03 2.477528860759349811e+02
1.451000000000000000e+03 2.564289341772310991e+02
1.452000000000000000e+03 7.337895333333723329e+02
1.453000000000000000e+03 3.044511367088800284e+02
1.454000000000000000e+03 2.625752987341771814e+02
1.455000000000000000e+03 6.175745729958022139e+02
1.456000000000000000e+03 5.310055304053691998e+02
1.457000000000000000e+03 3.721366362869282511e+02
1.458000000000000000e+03 5.459629172297325113e+02
1.459000000000000000e+03 4.952607212837958741e+02
1.460000000000000000e+03 2.216551469594643891e+02
1.461000000000000000e+03 3.824955878378397074e+02
1.462000000000000000e+03 2.995989450549403728e+02
1.463000000000000000e+03 1.701828986486475230e+02
1.464000000000000000e+03 2.408961065088922169e+02
1.465000000000000000e+03 4.385541251056375813e+02
1.466000000000000000e+03 2.297931530005598688e+01
1.467000000000000000e+03 3.530769230768098232e-01
1.468000000000000000e+03 0.000000000000000000e+00
1.469000000000000000e+03 0.000000000000000000e+00
1.470000000000000000e+03 0.000000000000000000e+00
1.471000000000000000e+03 0.000000000000000000e+00
1.472000000000000000e+03 0.000000000000000000e+00
1.473000000000000000e+03 0.000000000000000000e+00
1.474000000000000000e+03 0.000000000000000000e+00
1.475000000000000000e+03 0.000000000000000000e+00
1.476000000000000000e+03 0.000000000000000000e+00
1.477000000000000000e+03 0.000000000000000000e+00
1.478000000000000000e+03 0.000000000000000000e+00
1.479000000000000000e+03 0.000000000000000000e+00
1.480000000000000000e+03 0.000000000000000000e+00
1.481000000000000000e+03 0.000000000000000000e+00
1.482000000000000000e+03 0.000000000000000000e+00
1.483000000000000000e+03 0.000000000000000000e+00
1.484000000000000000e+03 0.000000000000000000e+00
1.485000000000000000e+03 0.000000000000000000e+00
1.486000000000000000e+03 0.000000000000000000e+00
1.487000000000000000e+03 0.000000000000000000e+00
1.488000000000000000e+03 0.000000000000000000e+00
1.489000000000000000e+03 0.000000000000000000e+00
1.490000000000000000e+03 0.000000000000000000e+00
1.491000000000000000e+03 0.000000000000000000e+00
1.492000000000000000e+03 0.000000000000000000e+00
1.493000000000000000e+03 0.000000000000000000e+00
1.494000000000000000e+03 0.000000000000000000e+00
1.495000000000000000e+03 0.000000000000000000e+00
1.496000000000000000e+03 0.000000000000000000e+00
1.497000000000000000e+03 0.000000000000000000e+00
1.498000000000000000e+03 0.000000000000000000e+00
1.499000000000000000e+03 0.000000000000000000e+00
1.500000000000000000e+03 0.000000000000000000e+00
