1.010000000000000000e+02 0.000000000000000000e+00
1.020000000000000000e+02 0.000000000000000000e+00
1.030000000000000000e+02 0.000000000000000000e+00
1.040000000000000000e+02 0.000000000000000000e+00
1.050000000000000000e+02 0.000000000000000000e+00
1.060000000000000000e+02 0.000000000000000000e+00
1.070000000000000000e+02 0.000000000000000000e+00
1.080000000000000000e+02 0.000000000000000000e+00
1.090000000000000000e+02 0.000000000000000000e+00
1.100000000000000000e+02 0.000000000000000000e+00
1.110000000000000000e+02 0.000000000000000000e+00
1.120000000000000000e+02 0.000000000000000000e+00
1.130000000000000000e+02 0.000000000000000000e+00
1.140000000000000000e+02 0.000000000000000000e+00
1.150000000000000000e+02 0.000000000000000000e+00
1.160000000000000000e+02 0.000000000000000000e+00
1.170000000000000000e+02 0.000000000000000000e+00
1.180000000000000000e+02 0.000000000000000000e+00
1.190000000000000000e+02 0.000000000000000000e+00
1.200000000000000000e+02 0.000000000000000000e+00
1.210000000000000000e+02 1.008344372121965593e+00
1.220000000000000000e+02 8.854438400746915683e-01
1.230000000000000000e+02 1.183612125948972782e+01
1.240000000000000000e+02 2.897700693632023317e+01
1.250000000000000000e+02 1.432869509023018040e+01
1.260000000000000000e+02 1.016991966314040496e+01
1.270000000000000000e+02 2.271657406969513460e+01
1.280000000000000000e+02 4.087457674341418823e+01
1.290000000000000000e+02 5.014662465463578656e+01
1.300000000000000000e+02 7.076530318191282731e+01
1.310000000000000000e+02 1.078646567814187733e+02
1.320000000000000000e+02 1.468388304293714555e+02
1.330000000000000000e+02 1.560943357394730242e+02
1.340000000000000000e+02 1.805636601824968182e+02
1.350000000000000000e+02 2.151527059116368150e+02
1.360000000000000000e+02 2.510441045426260303e+02
1.370000000000000000e+02 2.877791982579839782e+02
1.380000000000000000e+02 3.201866532462146893e+02
1.390000000000000000e+02 3.786853144368395760e+02
1.400000000000000000e+02 4.453732095810867122e+02
1.410000000000000000e+02 4.820208397635343545e+02
1.420000000000000000e+02 4.964012926986099501e+02
1.430000000000000000e+02 5.392472167185237595e+02
1.440000000000000000e+02 6.113318704003322637e+02
1.450000000000000000e+02 6.999129074051024872e+02
1.460000000000000000e+02 8.046852209085240020e+02
1.470000000000000000e+02 9.225058929682654707e+02
1.480000000000000000e+02 1.078676658577059925e+03
1.490000000000000000e+02 1.261146951047500352e+03
1.500000000000000000e+02 1.378746667081517444e+03
1.510000000000000000e+02 1.519284201576110263e+03
1.520000000000000000e+02 1.691072984443062978e+03
1.530000000000000000e+02 1.864963042937150249e+03
1.540000000000000000e+02 1.997622142057236715e+03
1.550000000000000000e+02 2.073733740510266671e+03
1.560000000000000000e+02 2.063383784484546140e+03
1.570000000000000000e+02 2.004392310516490397e+03
1.580000000000000000e+02 1.948752534951255257e+03
1.590000000000000000e+02 1.863406415059117307e+03
1.600000000000000000e+02 1.753966684505288185e+03
1.610000000000000000e+02 1.622796520224019105e+03
1.620000000000000000e+02 1.479751402198714004e+03
1.630000000000000000e+02 1.360610917029662915e+03
1.640000000000000000e+02 1.238820723708773585e+03
1.650000000000000000e+02 1.103920245799625491e+03
1.660000000000000000e+02 9.827393663970132138e+02
1.670000000000000000e+02 9.285635111595107674e+02
1.680000000000000000e+02 8.757627042314879873e+02
1.690000000000000000e+02 8.119845958929678318e+02
1.700000000000000000e+02 7.723285852105373124e+02
1.710000000000000000e+02 7.959608956864371976e+02
1.720000000000000000e+02 7.743417471064096844e+02
1.730000000000000000e+02 7.717464423771003794e+02
1.740000000000000000e+02 7.878967381169640021e+02
1.750000000000000000e+02 7.833330040655467883e+02
1.760000000000000000e+02 7.241478521261154810e+02
1.770000000000000000e+02 6.656702893819990550e+02
1.780000000000000000e+02 6.198727804604851599e+02
1.790000000000000000e+02 5.805318067413400058e+02
1.800000000000000000e+02 5.368087813355458593e+02
1.810000000000000000e+02 4.573047200995633830e+02
1.820000000000000000e+02 3.893123789670187875e+02
1.830000000000000000e+02 3.506861102675793518e+02
1.840000000000000000e+02 3.198627430823481745e+02
1.850000000000000000e+02 3.026433254096662608e+02
1.860000000000000000e+02 2.667503355113042858e+02
1.870000000000000000e+02 2.399073711263223743e+02
1.880000000000000000e+02 2.544211388716034037e+02
1.890000000000000000e+02 2.423598941091061647e+02
1.900000000000000000e+02 2.461690213856048501e+02
1.910000000000000000e+02 2.633064644057250234e+02
1.920000000000000000e+02 2.842738693839451685e+02
1.930000000000000000e+02 3.194370449906656404e+02
1.940000000000000000e+02 3.037249125907492839e+02
1.950000000000000000e+02 3.027887682016180406e+02
1.960000000000000000e+02 3.316050383322962034e+02
1.970000000000000000e+02 3.424486980091248824e+02
1.980000000000000000e+02 3.276822048537650289e+02
1.990000000000000000e+02 2.907350557353241811e+02
2.000000000000000000e+02 2.397369995852342015e+02
2.010000000000000000e+02 1.833229502177974553e+02
2.020000000000000000e+02 1.223568275046675922e+02
2.030000000000000000e+02 1.003309272086271164e+02
2.040000000000000000e+02 7.738379172993138866e+01
2.050000000000000000e+02 3.292007868699447215e+01
2.060000000000000000e+02 7.223608683119196350e+00
2.070000000000000000e+02 1.391466003090659775e+01
2.080000000000000000e+02 1.942500984443061185e+01
2.090000000000000000e+02 1.171106725700064644e+01
2.100000000000000000e+02 2.171988335407455839e+00
2.110000000000000000e+02 2.212268106616871322e+01
2.120000000000000000e+02 3.280060412984859397e+01
2.130000000000000000e+02 2.674057573532459386e+01
2.140000000000000000e+02 7.427712514623585172e+00
2.150000000000000000e+02 3.570821490354696870e+00
2.160000000000000000e+02 2.011922252022369406e+00
2.170000000000000000e+02 7.634044687201864576e+00
2.180000000000000000e+02 1.243715354698194808e+01
2.190000000000000000e+02 9.009471154324867115e+00
2.200000000000000000e+02 5.818248402406116959e+00
2.210000000000000000e+02 4.660447336652147499e+00
2.220000000000000000e+02 9.709452632234034652e-01
2.230000000000000000e+02 1.370152239838254538e+01
2.240000000000000000e+02 1.241921678282540320e+01
2.250000000000000000e+02 2.286705036092094900e+01
2.260000000000000000e+02 1.639734054334299174e+01
2.270000000000000000e+02 3.818526382493295124e+00
2.280000000000000000e+02 1.009633451400113557e+01
2.290000000000000000e+02 1.529593508502696686e+01
2.300000000000000000e+02 1.027788421489315063e+01
2.310000000000000000e+02 5.394359414436796563e+00
2.320000000000000000e+02 1.767088576228995578e+01
2.330000000000000000e+02 7.514083359676458684e+00
2.340000000000000000e+02 2.203460316739270297e+01
2.350000000000000000e+02 3.899668783239984293e+01
2.360000000000000000e+02 6.504852384982346791e+01
2.370000000000000000e+02 8.912881298838627231e+01
2.380000000000000000e+02 1.138762486621033787e+02
2.390000000000000000e+02 1.202882015142086800e+02
2.400000000000000000e+02 1.224570564496058012e+02
2.410000000000000000e+02 1.511781451566064050e+02
2.420000000000000000e+02 1.689509861232111234e+02
2.430000000000000000e+02 2.034161574450436092e+02
2.440000000000000000e+02 2.511292588052268684e+02
2.450000000000000000e+02 2.941992858535569439e+02
2.460000000000000000e+02 3.168340300290337836e+02
2.470000000000000000e+02 3.421130398879901122e+02
2.480000000000000000e+02 3.741855045218833311e+02
2.490000000000000000e+02 4.209957550601404250e+02
2.500000000000000000e+02 4.944276729309278267e+02
2.510000000000000000e+02 5.423331782202865270e+02
2.520000000000000000e+02 5.846265875544490882e+02
2.530000000000000000e+02 6.675438404272960042e+02
2.540000000000000000e+02 7.906007763119681613e+02
2.550000000000000000e+02 8.293947285625391714e+02
2.560000000000000000e+02 9.062925726197884160e+02
2.570000000000000000e+02 1.002409849823687523e+03
2.580000000000000000e+02 1.080275949180668704e+03
2.590000000000000000e+02 1.129282667911222234e+03
2.600000000000000000e+02 1.213234350964530449e+03
2.610000000000000000e+02 1.274421444306161447e+03
2.620000000000000000e+02 1.340315525617093272e+03
2.630000000000000000e+02 1.438343153048528848e+03
2.640000000000000000e+02 1.522601629952290523e+03
2.650000000000000000e+02 1.565246339763535616e+03
2.660000000000000000e+02 1.623726536914144845e+03
2.670000000000000000e+02 1.699840328355111978e+03
2.680000000000000000e+02 1.745380308442231353e+03
2.690000000000000000e+02 1.748112780588967098e+03
2.700000000000000000e+02 1.785846192906035640e+03
2.710000000000000000e+02 1.859919358017007880e+03
2.720000000000000000e+02 1.951560328701783419e+03
2.730000000000000000e+02 2.061598114499066924e+03
2.740000000000000000e+02 2.130709616677037502e+03
2.750000000000000000e+02 2.202811002488595022e+03
2.760000000000000000e+02 2.314246877826178206e+03
2.770000000000000000e+02 2.468607158265920589e+03
2.780000000000000000e+02 2.579047233561504072e+03
2.790000000000000000e+02 2.680015479153704291e+03
2.800000000000000000e+02 2.757929304501141360e+03
2.810000000000000000e+02 2.809102848993983571e+03
2.820000000000000000e+02 2.861097588052271021e+03
2.830000000000000000e+02 2.872672546359675835e+03
2.840000000000000000e+02 2.835466998755445729e+03
2.850000000000000000e+02 2.738153158058496956e+03
2.860000000000000000e+02 2.574623674548853614e+03
2.870000000000000000e+02 2.375489269653600331e+03
2.880000000000000000e+02 2.205616981331676016e+03
2.890000000000000000e+02 2.013238260526865361e+03
2.900000000000000000e+02 1.776716495747769841e+03
2.910000000000000000e+02 1.545101306160548347e+03
2.920000000000000000e+02 1.376645725425135652e+03
2.930000000000000000e+02 1.215006811449904717e+03
2.940000000000000000e+02 1.065899185646130945e+03
2.950000000000000000e+02 9.405339345914545675e+02
2.960000000000000000e+02 8.039973585977986659e+02
2.970000000000000000e+02 6.781950455507140987e+02
2.980000000000000000e+02 5.990973060141026281e+02
2.990000000000000000e+02 5.438935762497400219e+02
3.000000000000000000e+02 4.662952216137712185e+02
3.010000000000000000e+02 3.759854497304031611e+02
3.020000000000000000e+02 3.108463972619799165e+02
3.030000000000000000e+02 2.748590427504673812e+02
3.040000000000000000e+02 2.461536867869739922e+02
3.050000000000000000e+02 1.951976636175069189e+02
3.060000000000000000e+02 1.930671701306783632e+02
3.070000000000000000e+02 1.525823376477907232e+02
3.080000000000000000e+02 1.073746909769757423e+02
3.090000000000000000e+02 1.094660288114499309e+02
3.100000000000000000e+02 9.988279814976127113e+01
3.110000000000000000e+02 7.218479884256359469e+01
3.120000000000000000e+02 5.046854112424807681e+01
3.130000000000000000e+02 4.219414886330628178e+01
3.140000000000000000e+02 3.569316766645908956e+01
3.150000000000000000e+02 5.580524650279761190e+00
3.160000000000000000e+02 2.331566625513269742e+01
3.170000000000000000e+02 3.341489650902241948e+01
3.180000000000000000e+02 1.169953812901888668e+01
3.190000000000000000e+02 1.151477084961634745e+01
3.200000000000000000e+02 4.324325306782959011e+00
3.210000000000000000e+02 4.784080579340347583e+00
3.220000000000000000e+02 1.569150549056191757e+01
3.230000000000000000e+02 2.791468101016386782e+01
3.240000000000000000e+02 2.047160016179213926e+01
3.250000000000000000e+02 2.939816136278777492e+01
3.260000000000000000e+02 2.613372101223828992e+01
3.270000000000000000e+02 1.392581834266745133e+01
3.280000000000000000e+02 2.033349111387685326e+01
3.290000000000000000e+02 3.709023528313630180e+01
3.300000000000000000e+02 3.288969362165495625e+01
3.310000000000000000e+02 1.498057542418552579e+01
3.320000000000000000e+02 2.523006379925441856e+00
3.330000000000000000e+02 1.612262561086913948e+01
3.340000000000000000e+02 3.033900027380372677e+00
3.350000000000000000e+02 3.248187994193204808e+00
3.360000000000000000e+02 1.984845376270416129e+00
3.370000000000000000e+02 2.684951623522330078e+00
3.380000000000000000e+02 1.621197203027773170e+01
3.390000000000000000e+02 6.303058230242895021e+00
3.400000000000000000e+02 3.170055772453837850e+00
3.410000000000000000e+02 7.883707853172949420e+00
3.420000000000000000e+02 1.892409936942542359e+01
3.430000000000000000e+02 1.173490718108282849e+01
3.440000000000000000e+02 9.607776745488516568e+00
3.450000000000000000e+02 1.333412677245388700e+01
3.460000000000000000e+02 1.217749466376267264e+01
3.470000000000000000e+02 3.466532203277623125e+00
3.480000000000000000e+02 1.378049324206601689e+01
3.490000000000000000e+02 8.655248369632746019e+00
3.500000000000000000e+02 1.753917026757855524e+01
3.510000000000000000e+02 4.025012231487259839e+01
3.520000000000000000e+02 3.930850896701929287e+01
3.530000000000000000e+02 4.813209273802092980e+01
3.540000000000000000e+02 5.895802711055775092e+01
3.550000000000000000e+02 7.481469684778085139e+01
3.560000000000000000e+02 9.749989009126717576e+01
3.570000000000000000e+02 1.151388742999375268e+02
3.580000000000000000e+02 1.284797084007468300e+02
3.590000000000000000e+02 1.598872453018045974e+02
3.600000000000000000e+02 1.880202304023226816e+02
3.610000000000000000e+02 1.909823439950219495e+02
3.620000000000000000e+02 2.060476191039204821e+02
3.630000000000000000e+02 2.161945919535464213e+02
3.640000000000000000e+02 2.428584058286671734e+02
3.650000000000000000e+02 2.667060294959551356e+02
3.660000000000000000e+02 2.625714710908337111e+02
3.670000000000000000e+02 2.782133120099560415e+02
3.680000000000000000e+02 2.899932320472933043e+02
3.690000000000000000e+02 2.974487922438821670e+02
3.700000000000000000e+02 2.954636331466501815e+02
3.710000000000000000e+02 2.804286380211578376e+02
3.720000000000000000e+02 2.649866325451150715e+02
3.730000000000000000e+02 3.060138203692176262e+02
3.740000000000000000e+02 3.074891466708164103e+02
3.750000000000000000e+02 2.412803838830116661e+02
3.760000000000000000e+02 2.233733373366521278e+02
3.770000000000000000e+02 1.822642770379591468e+02
3.780000000000000000e+02 1.490755741339967813e+02
3.790000000000000000e+02 1.329202925326694640e+02
3.800000000000000000e+02 1.279834209707529595e+02
3.810000000000000000e+02 1.291684577473552338e+02
3.820000000000000000e+02 1.057881662103292797e+02
3.830000000000000000e+02 1.181634398879904353e+02
3.840000000000000000e+02 1.255043203069905928e+02
3.850000000000000000e+02 9.677214458618553294e+01
3.860000000000000000e+02 1.077693104520948850e+02
3.870000000000000000e+02 1.276327169674338506e+02
3.880000000000000000e+02 1.396950571873054230e+02
3.890000000000000000e+02 1.426250024471173958e+02
3.900000000000000000e+02 1.481247850653389833e+02
3.910000000000000000e+02 1.748258764571661743e+02
3.920000000000000000e+02 1.987409907507257572e+02
3.930000000000000000e+02 2.193922645509230733e+02
3.940000000000000000e+02 2.364649439327939717e+02
3.950000000000000000e+02 2.492282475943593454e+02
3.960000000000000000e+02 2.668206573117612947e+02
3.970000000000000000e+02 3.061357180667912985e+02
3.980000000000000000e+02 3.515188579132969835e+02
3.990000000000000000e+02 3.893120417548231558e+02
4.000000000000000000e+02 4.113374706077578367e+02
4.010000000000000000e+02 4.180329429786351056e+02
4.020000000000000000e+02 4.149886590126529313e+02
4.030000000000000000e+02 4.290667238332304123e+02
4.040000000000000000e+02 4.490973784691972810e+02
4.050000000000000000e+02 4.400975651524582872e+02
4.060000000000000000e+02 4.192080137108490590e+02
4.070000000000000000e+02 3.858829063887162647e+02
4.080000000000000000e+02 3.581818280024893397e+02
4.090000000000000000e+02 3.209497018668335500e+02
4.100000000000000000e+02 2.500810013067826674e+02
4.110000000000000000e+02 1.962328995229207180e+02
4.120000000000000000e+02 1.764582944214020301e+02
4.130000000000000000e+02 1.453983357187300101e+02
4.140000000000000000e+02 1.030462570255132704e+02
4.150000000000000000e+02 8.076714713811672652e+01
4.160000000000000000e+02 4.108534837378056181e+01
4.170000000000000000e+02 8.569110307405241045e+00
4.180000000000000000e+02 2.019589239734549579e+01
4.190000000000000000e+02 1.908735976560878456e+01
4.200000000000000000e+02 2.368422606928050911e+01
4.210000000000000000e+02 5.445436601410185062e+01
4.220000000000000000e+02 6.147354164281279054e+01
4.230000000000000000e+02 5.465472409043786683e+01
4.240000000000000000e+02 4.712050755910413358e+01
4.250000000000000000e+02 4.082577902094992339e+01
4.260000000000000000e+02 4.856961243310524878e+01
4.270000000000000000e+02 2.884811148102048151e+01
4.280000000000000000e+02 3.198525994606916711e+01
4.290000000000000000e+02 4.666736277328381277e+01
4.300000000000000000e+02 9.369007461522159019e+00
4.310000000000000000e+02 1.412297365276923244e+01
4.320000000000000000e+02 2.551163186475835687e+01
4.330000000000000000e+02 6.072922411118138086e+01
4.340000000000000000e+02 1.174876492532677332e+02
4.350000000000000000e+02 1.622417582451776923e+02
4.360000000000000000e+02 1.925774581207224685e+02
4.370000000000000000e+02 2.560533432690331210e+02
4.380000000000000000e+02 3.259711165733261851e+02
4.390000000000000000e+02 3.937553233146634284e+02
4.400000000000000000e+02 4.792894413814536847e+02
4.410000000000000000e+02 5.815295858357548013e+02
4.420000000000000000e+02 6.799727452188332109e+02
4.430000000000000000e+02 8.028306439120491405e+02
4.440000000000000000e+02 9.496752831190361803e+02
4.450000000000000000e+02 1.095598525824517537e+03
4.460000000000000000e+02 1.235904337066997414e+03
4.470000000000000000e+02 1.423642566984654422e+03
4.480000000000000000e+02 1.596409210952085687e+03
4.490000000000000000e+02 1.753541049782203118e+03
4.500000000000000000e+02 1.927193940273748467e+03
4.510000000000000000e+02 2.077379134204524235e+03
4.520000000000000000e+02 2.173851809375648827e+03
4.530000000000000000e+02 2.275003496992322653e+03
4.540000000000000000e+02 2.356674980087119366e+03
4.550000000000000000e+02 2.360499389545736449e+03
4.560000000000000000e+02 2.302729828458826887e+03
4.570000000000000000e+02 2.279235235635760546e+03
4.580000000000000000e+02 2.182822243310517024e+03
4.590000000000000000e+02 2.092554308649657742e+03
4.600000000000000000e+02 2.100988515660651501e+03
4.610000000000000000e+02 2.096570793196432533e+03
4.620000000000000000e+02 2.111039226509022683e+03
4.630000000000000000e+02 2.144109413814560867e+03
4.640000000000000000e+02 2.232837330844221469e+03
4.650000000000000000e+02 2.391853560257209210e+03
4.660000000000000000e+02 2.574573225264468419e+03
4.670000000000000000e+02 2.816608617586063701e+03
4.680000000000000000e+02 3.046395416303675120e+03
4.690000000000000000e+02 3.288782501348271126e+03
4.700000000000000000e+02 3.575069159892158950e+03
4.710000000000000000e+02 3.878153640116165661e+03
4.720000000000000000e+02 4.142319927193532749e+03
4.730000000000000000e+02 4.382590911240147761e+03
4.740000000000000000e+02 4.528612841734078756e+03
4.750000000000000000e+02 4.559938570213648745e+03
4.760000000000000000e+02 4.504589273330568176e+03
4.770000000000000000e+02 4.205979074051031603e+03
4.780000000000000000e+02 3.854106085459455244e+03
4.790000000000000000e+02 3.503254655465671476e+03
4.800000000000000000e+02 3.125867167600085395e+03
4.810000000000000000e+02 2.724883410080899466e+03
4.820000000000000000e+02 2.468919420659612115e+03
4.830000000000000000e+02 2.244856297656087463e+03
4.840000000000000000e+02 2.055902473553205255e+03
4.850000000000000000e+02 1.891692918066788252e+03
4.860000000000000000e+02 1.729292501555692297e+03
4.870000000000000000e+02 1.612299694254303404e+03
4.880000000000000000e+02 1.511900069902507539e+03
4.890000000000000000e+02 1.448095242688237931e+03
4.900000000000000000e+02 1.409872650902301757e+03
4.910000000000000000e+02 1.393907254511512065e+03
4.920000000000000000e+02 1.440567574984441535e+03
4.930000000000000000e+02 1.506353483409375485e+03
4.940000000000000000e+02 1.595787900020741063e+03
4.950000000000000000e+02 1.730152954573736679e+03
4.960000000000000000e+02 1.928809493156362350e+03
4.970000000000000000e+02 2.202761637627046639e+03
4.980000000000000000e+02 2.562220235013478487e+03
4.990000000000000000e+02 3.000828955620072975e+03
5.000000000000000000e+02 3.545651170504047059e+03
5.010000000000000000e+02 4.196058132545113949e+03
5.020000000000000000e+02 4.930875387805897844e+03
5.030000000000000000e+02 5.777132461729942406e+03
5.040000000000000000e+02 6.730942489110149836e+03
5.050000000000000000e+02 7.743037311489034437e+03
5.060000000000000000e+02 8.806520247044205462e+03
5.070000000000000000e+02 9.955864135656522194e+03
5.080000000000000000e+02 1.122998839659818805e+04
5.090000000000000000e+02 1.250434874922213749e+04
5.100000000000000000e+02 1.378290296411535928e+04
5.110000000000000000e+02 1.499532880730137549e+04
5.120000000000000000e+02 1.594184661895872887e+04
5.130000000000000000e+02 1.640938942750466958e+04
5.140000000000000000e+02 1.627779281891722167e+04
5.150000000000000000e+02 1.530706006845048978e+04
5.160000000000000000e+02 1.372458954158882989e+04
5.170000000000000000e+02 1.182831497407185634e+04
5.180000000000000000e+02 9.838857260111910364e+03
5.190000000000000000e+02 8.094988976145944434e+03
5.200000000000000000e+02 6.668998710848421979e+03
5.210000000000000000e+02 5.479313838415309874e+03
5.220000000000000000e+02 4.521949972003346375e+03
5.230000000000000000e+02 3.802672892968275391e+03
5.240000000000000000e+02 3.196641388301193274e+03
5.250000000000000000e+02 2.665908238075492136e+03
5.260000000000000000e+02 2.223078411532875634e+03
5.270000000000000000e+02 1.893094444306160085e+03
5.280000000000000000e+02 1.645708759021148580e+03
5.290000000000000000e+02 1.407629894005387769e+03
5.300000000000000000e+02 1.245703370877407906e+03
5.310000000000000000e+02 1.090538625051838608e+03
5.320000000000000000e+02 9.573837868077109761e+02
5.330000000000000000e+02 8.398428760008234804e+02
5.340000000000000000e+02 7.059260865173229149e+02
5.350000000000000000e+02 6.527288608794887068e+02
5.360000000000000000e+02 5.628313995644023180e+02
5.370000000000000000e+02 4.859810997510902553e+02
5.380000000000000000e+02 4.252239720389978856e+02
5.390000000000000000e+02 3.608242389130899141e+02
5.400000000000000000e+02 3.218052966811865758e+02
5.410000000000000000e+02 2.920891359054139116e+02
5.420000000000000000e+02 2.531519711470651828e+02
5.430000000000000000e+02 2.131121143746103996e+02
5.440000000000000000e+02 1.767297006430194699e+02
5.450000000000000000e+02 1.381033723086490568e+02
5.460000000000000000e+02 1.044305610080889437e+02
5.470000000000000000e+02 9.645187343497173060e+01
5.480000000000000000e+02 7.600233370385643639e+01
5.490000000000000000e+02 3.809955457788668554e+01
5.500000000000000000e+02 8.784207481020768427e+00
5.510000000000000000e+02 2.423956396101201349e+01
5.520000000000000000e+02 6.973231806264383437e+00
5.530000000000000000e+02 6.421714787595707463e+00
5.540000000000000000e+02 7.723562297802059717e+00
5.550000000000000000e+02 1.998148892345976080e+01
5.560000000000000000e+02 2.791763684297855619e+01
5.570000000000000000e+02 3.388096539817505715e+01
5.580000000000000000e+02 1.537288963285596743e+01
5.590000000000000000e+02 2.000463084754224852e+01
5.600000000000000000e+02 4.462698419415105633e+01
5.610000000000000000e+02 5.230576106824257465e+01
5.620000000000000000e+02 2.847212685542412913e+01
5.630000000000000000e+02 3.883513829910841508e+01
5.640000000000000000e+02 4.365427822650895706e+01
5.650000000000000000e+02 4.330399240821409990e+01
5.660000000000000000e+02 4.138174861232084822e+01
5.670000000000000000e+02 2.346107597178980697e+01
5.680000000000000000e+02 4.984774576851274119e+00
5.690000000000000000e+02 3.817408281269544013e+00
5.700000000000000000e+02 8.561312088570929291e+00
5.710000000000000000e+02 2.402542849823685245e+01
5.720000000000000000e+02 3.791914690520645337e+01
5.730000000000000000e+02 4.058690133789671250e+01
5.740000000000000000e+02 4.337339573413517968e+01
5.750000000000000000e+02 6.328137223190231708e+01
5.760000000000000000e+02 7.699640329807093053e+01
5.770000000000000000e+02 8.254183019493981988e+01
5.780000000000000000e+02 9.947403844430618847e+01
5.790000000000000000e+02 9.654104065753990938e+01
5.800000000000000000e+02 1.130081970966403873e+02
5.810000000000000000e+02 1.256996709811242567e+02
5.820000000000000000e+02 1.178392849408837861e+02
5.830000000000000000e+02 1.005015945665698780e+02
5.840000000000000000e+02 9.623085089400539971e+01
5.850000000000000000e+02 1.143330373988797248e+02
5.860000000000000000e+02 7.535818606802139641e+01
5.870000000000000000e+02 4.673761367766023511e+01
5.880000000000000000e+02 4.915552681808757995e+01
5.890000000000000000e+02 6.580689001866828391e+01
5.900000000000000000e+02 1.753699508815597596e+02
5.910000000000000000e+02 8.907477551959962625e+01
5.920000000000000000e+02 5.134070489110127511e+01
5.930000000000000000e+02 6.033431185023883359e+01
5.940000000000000000e+02 4.041375184816456567e+01
5.950000000000000000e+02 3.593799818502385079e+01
5.960000000000000000e+02 3.974099815183562612e+01
5.970000000000000000e+02 4.230628242688231211e+01
5.980000000000000000e+02 6.100029695083969017e+01
5.990000000000000000e+02 6.569775698402852981e+01
6.000000000000000000e+02 4.018650102447118400e+01
6.010000000000000000e+02 3.974209690170059872e+01
6.020000000000000000e+02 3.447751116988177245e+01
6.030000000000000000e+02 3.265313542003730163e+01
6.040000000000000000e+02 4.368487427208599172e+01
6.050000000000000000e+02 5.098148036299529906e+01
6.060000000000000000e+02 3.747008400124462213e+01
6.070000000000000000e+02 3.757340170468685159e+01
6.080000000000000000e+02 3.213317089815398475e+01
6.090000000000000000e+02 1.809248302012059995e+01
6.100000000000000000e+02 1.612456842803804591e+01
6.110000000000000000e+02 2.044116121344125503e+01
6.120000000000000000e+02 9.389714584733571456e+00
6.130000000000000000e+02 2.662053255288247655e+01
6.140000000000000000e+02 3.262358781995434498e+01
6.150000000000000000e+02 3.393452377722458380e+01
6.160000000000000000e+02 4.925388616677076215e+01
6.170000000000000000e+02 6.765817702758749874e+01
6.180000000000000000e+02 4.516181864550897274e+01
6.190000000000000000e+02 1.991095426260133294e+01
6.200000000000000000e+02 2.449814754822616791e+01
6.210000000000000000e+02 2.479572450736329614e+01
6.220000000000000000e+02 2.424059182534717394e+01
6.230000000000000000e+02 3.484792038788622648e+01
6.240000000000000000e+02 2.704976453018070970e+01
6.250000000000000000e+02 2.942355309271921726e+01
6.260000000000000000e+02 3.958700034847503701e+01
6.270000000000000000e+02 4.742720917461611663e+01
6.280000000000000000e+02 4.986222680564210918e+01
6.290000000000000000e+02 4.359063953329182084e+01
6.300000000000000000e+02 4.439652559311502955e+01
6.310000000000000000e+02 2.772398843808331392e+01
6.320000000000000000e+02 2.529668308234808904e+01
6.330000000000000000e+02 3.508872585234356478e+01
6.340000000000000000e+02 5.364562182949681812e+01
6.350000000000000000e+02 7.210642058908932484e+01
6.360000000000000000e+02 4.022156705101712504e+01
6.370000000000000000e+02 4.377924633271044286e+01
6.380000000000000000e+02 4.946650290603606948e+01
6.390000000000000000e+02 4.413498272915830256e+01
6.400000000000000000e+02 4.173261552997291091e+01
6.410000000000000000e+02 5.463163975731063005e+01
6.420000000000000000e+02 7.452725826799434117e+01
6.430000000000000000e+02 5.670263759178633478e+01
6.440000000000000000e+02 6.210662650279964936e+01
6.450000000000000000e+02 7.682209782617714211e+01
6.460000000000000000e+02 8.284240175482260327e+01
6.470000000000000000e+02 1.004099594275046314e+02
6.480000000000000000e+02 1.001007875544492123e+02
6.490000000000000000e+02 9.667402309271930960e+01
6.500000000000000000e+02 9.926297407176944887e+01
6.510000000000000000e+02 1.053477516697783187e+02
6.520000000000000000e+02 1.034686884878651938e+02
6.530000000000000000e+02 9.066762641360682551e+01
6.540000000000000000e+02 1.125429419829904418e+02
6.550000000000000000e+02 1.185228894212813771e+02
6.560000000000000000e+02 9.446880353794955454e+01
6.570000000000000000e+02 7.265224038581206401e+01
6.580000000000000000e+02 7.861964384152608432e+01
6.590000000000000000e+02 9.052886852758207681e+01
6.600000000000000000e+02 6.975382773283571680e+01
6.610000000000000000e+02 4.961805482887382368e+01
6.620000000000000000e+02 3.719910589381995436e+01
6.630000000000000000e+02 4.744472989213898018e+01
6.640000000000000000e+02 6.878863474382914944e+01
6.650000000000000000e+02 5.865579065325550090e+01
6.660000000000000000e+02 4.759240223397596026e+01
6.670000000000000000e+02 2.976652019083109835e+01
6.680000000000000000e+02 2.637825102260963561e+01
6.690000000000000000e+02 2.391208425430334827e+01
6.700000000000000000e+02 9.407162140634525826e+00
6.710000000000000000e+02 4.334329888612585613e+00
6.720000000000000000e+02 1.287418148724450262e+00
6.730000000000000000e+02 1.377950020742633086e+01
6.740000000000000000e+02 1.062590721219690870e+01
6.750000000000000000e+02 2.835014930304765368e+00
6.760000000000000000e+02 4.113138448454850327e+00
6.770000000000000000e+02 8.675672674963742281e+00
6.780000000000000000e+02 3.121400733250360382e+00
6.790000000000000000e+02 1.037323998133170022e+01
6.800000000000000000e+02 1.083052109956481424e+01
6.810000000000000000e+02 2.751078081725763269e+01
6.820000000000000000e+02 2.139310378058894102e+01
6.830000000000000000e+02 1.834776561294292918e+01
6.840000000000000000e+02 6.381064675171154832e+00
6.850000000000000000e+02 2.440101466611393022e+01
6.860000000000000000e+02 1.065698813897489750e+01
6.870000000000000000e+02 1.035498404895252733e+01
6.880000000000000000e+02 1.800507497926144040e+01
6.890000000000000000e+02 4.049435676415438223e+00
6.900000000000000000e+02 2.565878359468857450e+00
6.910000000000000000e+02 1.937145601534954764e+01
6.920000000000000000e+02 1.666247660651316664e+01
6.930000000000000000e+02 3.287308034847549632e+00
6.940000000000000000e+02 7.499695482265002155e+00
6.950000000000000000e+02 6.738712286247482197e+00
6.960000000000000000e+02 7.619356114890212694e+00
6.970000000000000000e+02 2.046614823065776889e+01
6.980000000000000000e+02 3.081042621032990780e+01
6.990000000000000000e+02 3.859302589382005522e+01
7.000000000000000000e+02 4.017548258037743381e+01
7.010000000000000000e+02 4.079359922215317624e+01
7.020000000000000000e+02 5.655408650974714391e+01
7.030000000000000000e+02 5.687456709396388987e+01
7.040000000000000000e+02 6.412135515660655471e+01
7.050000000000000000e+02 1.002803675321451351e+02
7.060000000000000000e+02 1.171679404272973102e+02
7.070000000000000000e+02 9.905611054138144311e+01
7.080000000000000000e+02 1.427417749222156260e+02
7.090000000000000000e+02 1.563594708981539156e+02
7.100000000000000000e+02 1.529946996888612318e+02
7.110000000000000000e+02 1.579226210952086262e+02
7.120000000000000000e+02 1.699514451151213450e+02
7.130000000000000000e+02 1.862875525824514966e+02
7.140000000000000000e+02 2.128600312383323683e+02
7.150000000000000000e+02 2.054074515038374216e+02
7.160000000000000000e+02 2.035556303049159226e+02
7.170000000000000000e+02 2.182666459240822121e+02
7.180000000000000000e+02 2.347136409458617550e+02
7.190000000000000000e+02 2.416790478738849970e+02
7.200000000000000000e+02 2.423403457166562873e+02
7.210000000000000000e+02 2.381858498444306633e+02
7.220000000000000000e+02 2.513770849440064694e+02
7.230000000000000000e+02 2.477361702343912100e+02
7.240000000000000000e+02 2.575934758141467000e+02
7.250000000000000000e+02 2.775142120696806387e+02
7.260000000000000000e+02 2.846969211574360088e+02
7.270000000000000000e+02 3.066252839659821916e+02
7.280000000000000000e+02 2.877394992948986783e+02
7.290000000000000000e+02 3.056722245799621760e+02
7.300000000000000000e+02 3.175080821406348832e+02
7.310000000000000000e+02 3.421471664869340543e+02
7.320000000000000000e+02 3.959350902094993785e+02
7.330000000000000000e+02 4.181369831570207225e+02
7.340000000000000000e+02 4.507951632517623466e+02
7.350000000000000000e+02 4.487838529558180767e+02
7.360000000000000000e+02 4.805214288114487431e+02
7.370000000000000000e+02 5.423281358846714966e+02
7.380000000000000000e+02 5.945505486413608196e+02
7.390000000000000000e+02 6.149249268823895136e+02
7.400000000000000000e+02 6.092807454262596139e+02
7.410000000000000000e+02 6.837219949802963583e+02
7.420000000000000000e+02 7.093510374611074667e+02
7.430000000000000000e+02 7.356562361750660557e+02
7.440000000000000000e+02 7.758218423148716738e+02
7.450000000000000000e+02 7.906003833022186882e+02
7.460000000000000000e+02 8.075946200580789309e+02
7.470000000000000000e+02 8.047824344326905930e+02
7.480000000000000000e+02 7.986237978842566463e+02
7.490000000000000000e+02 8.153553429993772852e+02
7.500000000000000000e+02 8.202747378344747631e+02
7.510000000000000000e+02 8.026301636665285741e+02
7.520000000000000000e+02 7.892554782617714864e+02
7.530000000000000000e+02 7.454801524579962688e+02
7.540000000000000000e+02 7.525186802571547560e+02
7.550000000000000000e+02 7.379712433934862474e+02
7.560000000000000000e+02 7.096609994192072008e+02
7.570000000000000000e+02 6.855395029448372952e+02
7.580000000000000000e+02 6.670166476664588799e+02
7.590000000000000000e+02 6.708055634515660586e+02
7.600000000000000000e+02 6.595365491497310586e+02
7.610000000000000000e+02 6.362135567724550356e+02
7.620000000000000000e+02 6.040727818294975577e+02
7.630000000000000000e+02 5.840468751711264304e+02
7.640000000000000000e+02 5.718507695706296090e+02
7.650000000000000000e+02 5.449392068243103040e+02
7.660000000000000000e+02 5.466894898361335891e+02
7.670000000000000000e+02 5.412216726820163331e+02
7.680000000000000000e+02 5.233278904791538935e+02
7.690000000000000000e+02 4.944900138975311847e+02
7.700000000000000000e+02 4.727465581829495136e+02
7.710000000000000000e+02 4.715249780958307610e+02
7.720000000000000000e+02 4.747701311761045986e+02
7.730000000000000000e+02 4.683167264053098506e+02
7.740000000000000000e+02 4.671715970338103716e+02
7.750000000000000000e+02 4.254094311553585612e+02
7.760000000000000000e+02 3.877851820161786804e+02
7.770000000000000000e+02 3.705404964330141411e+02
7.780000000000000000e+02 3.523286695291426440e+02
7.790000000000000000e+02 3.708007747355321158e+02
7.800000000000000000e+02 3.562455672335123609e+02
7.810000000000000000e+02 3.545980610454262205e+02
7.820000000000000000e+02 3.451688927815809507e+02
7.830000000000000000e+02 3.418685669224387880e+02
7.840000000000000000e+02 3.479558700269653286e+02
7.850000000000000000e+02 3.450188863098943557e+02
7.860000000000000000e+02 3.960228040647046441e+02
7.870000000000000000e+02 3.967641276498648040e+02
7.880000000000000000e+02 3.816538048952496069e+02
7.890000000000000000e+02 4.204040046670845641e+02
7.900000000000000000e+02 4.650954976975727959e+02
7.910000000000000000e+02 4.691553278987771023e+02
7.920000000000000000e+02 4.973719490354698110e+02
7.930000000000000000e+02 4.869330010371289745e+02
7.940000000000000000e+02 4.897497446172995978e+02
7.950000000000000000e+02 5.089337799626628680e+02
7.960000000000000000e+02 5.180526868284590591e+02
7.970000000000000000e+02 5.348572132959975534e+02
7.980000000000000000e+02 5.731191271105579972e+02
7.990000000000000000e+02 5.830683269446172972e+02
8.000000000000000000e+02 6.209218995021778937e+02
8.010000000000000000e+02 6.055618690313206116e+02
8.020000000000000000e+02 6.018107127566896679e+02
8.030000000000000000e+02 6.114741058896723871e+02
8.040000000000000000e+02 6.172104310516492660e+02
8.050000000000000000e+02 6.287845884878659035e+02
8.060000000000000000e+02 6.496950234342599515e+02
8.070000000000000000e+02 6.677263796930096760e+02
8.080000000000000000e+02 6.442382612321091528e+02
8.090000000000000000e+02 6.525376325176281398e+02
8.100000000000000000e+02 6.465601444928428236e+02
8.110000000000000000e+02 5.960383227546147964e+02
8.120000000000000000e+02 5.594783120489418025e+02
8.130000000000000000e+02 5.248015296826387157e+02
8.140000000000000000e+02 4.523960986932177661e+02
8.150000000000000000e+02 4.027627573206131046e+02
8.160000000000000000e+02 3.485997556108683852e+02
8.170000000000000000e+02 2.829788408214062656e+02
8.180000000000000000e+02 2.286555342874917471e+02
8.190000000000000000e+02 1.900433164903542149e+02
8.200000000000000000e+02 1.242515400954160185e+02
8.210000000000000000e+02 9.954259203069882744e+01
8.220000000000000000e+02 7.982198892345979857e+01
8.230000000000000000e+02 7.132415293092718400e+01
8.240000000000000000e+02 6.543541868492003744e+01
8.250000000000000000e+02 4.704160454055177354e+01
8.260000000000000000e+02 2.512095164903566769e+01
8.270000000000000000e+02 1.656560610454256022e+01
8.280000000000000000e+02 1.863556233291830111e+01
8.290000000000000000e+02 1.366921133789701237e+01
8.300000000000000000e+02 4.643856502177971635e+00
8.310000000000000000e+02 1.508377165525853547e+00
8.320000000000000000e+02 3.219626235586967589e+00
8.330000000000000000e+02 6.254759609417116728e+00
8.340000000000000000e+02 7.803498859987610281e+00
8.350000000000000000e+02 1.821688818747380978e+00
8.360000000000000000e+02 1.138758413690090876e+01
8.370000000000000000e+02 9.892843379797039205e+00
8.380000000000000000e+02 1.618080614267915163e+00
8.390000000000000000e+02 4.066570703588465285e+00
8.400000000000000000e+02 3.868265117610340198e+00
8.410000000000000000e+02 2.760238130858552097e+01
8.420000000000000000e+02 1.351449231694702036e+01
8.430000000000000000e+02 1.299249967226706026e+01
8.440000000000000000e+02 4.259896056627312966e+00
8.450000000000000000e+02 2.168116083385191217e+01
8.460000000000000000e+02 1.527938166438495848e+01
8.470000000000000000e+02 1.281222362580355778e+01
8.480000000000000000e+02 1.897535050404462353e+01
8.490000000000000000e+02 3.325935450529044601e+00
8.500000000000000000e+02 2.885605144990568860e+00
8.510000000000000000e+02 1.767822741547548926e+00
8.520000000000000000e+02 4.338749845259885163e+00
8.530000000000000000e+02 2.835144317776793876e+00
8.540000000000000000e+02 1.605276362165490056e+01
8.550000000000000000e+02 8.953098876789313820e+00
8.560000000000000000e+02 1.059505289981329668e+01
8.570000000000000000e+02 1.002231244803964216e+01
8.580000000000000000e+02 2.292924715470719477e+01
8.590000000000000000e+02 3.155805164903548388e+01
8.600000000000000000e+02 2.021744518979476268e+01
8.610000000000000000e+02 8.516132025715512199e+00
8.620000000000000000e+02 2.319124649657764436e+01
8.630000000000000000e+02 2.414716824517718763e+01
8.640000000000000000e+02 4.203450923476479417e+00
8.650000000000000000e+02 3.784774439949880165e+00
8.660000000000000000e+02 1.652956556108741637e+01
8.670000000000000000e+02 2.326511862297799027e+01
8.680000000000000000e+02 2.435327166148087130e+01
8.690000000000000000e+02 2.747563205351602633e+01
8.700000000000000000e+02 6.545745567931988695e+00
8.710000000000000000e+02 1.314085337274397425e+01
8.720000000000000000e+02 1.843096574362161988e+01
8.730000000000000000e+02 1.759636311138769216e+01
8.740000000000000000e+02 2.136385586807704939e+01
8.750000000000000000e+02 2.083638043352035396e+01
8.760000000000000000e+02 1.285955598174683701e+01
8.770000000000000000e+02 4.665997683260742690e+01
8.780000000000000000e+02 1.898981270483270833e+01
8.790000000000000000e+02 2.047673905206453426e+01
8.800000000000000000e+02 3.359802513378996025e+01
8.810000000000000000e+02 5.011084732420738419e+01
8.820000000000000000e+02 5.437226996266392121e+01
8.830000000000000000e+02 3.713408947936162718e+01
8.840000000000000000e+02 4.070548598506744753e+01
8.850000000000000000e+02 1.897785385189782303e+01
8.860000000000000000e+02 3.201654113876725205e+01
8.870000000000000000e+02 4.286567132725012641e+01
8.880000000000000000e+02 2.087022972204995952e+01
8.890000000000000000e+02 2.262429808545842391e+01
8.900000000000000000e+02 5.906815836167559297e+01
8.910000000000000000e+02 5.240199495332909407e+01
8.920000000000000000e+02 3.108655354905614843e+01
8.930000000000000000e+02 2.243013048527579301e+01
8.940000000000000000e+02 4.229582409251257502e+01
8.950000000000000000e+02 4.746139222153063741e+01
8.960000000000000000e+02 3.611842584819508772e+01
8.970000000000000000e+02 2.745808524372547055e+01
8.980000000000000000e+02 2.576131088363370480e+01
8.990000000000000000e+02 1.858188390997653272e+01
9.000000000000000000e+02 3.426874357187327291e+01
9.010000000000000000e+02 2.920871760630549474e+01
9.020000000000000000e+02 2.702365869736561876e+01
9.030000000000000000e+02 2.972834038996052541e+01
9.040000000000000000e+02 3.259110553204721583e+01
9.050000000000000000e+02 3.598200899813316056e+01
9.060000000000000000e+02 3.952063029454469500e+01
9.070000000000000000e+02 3.703749391205146679e+01
9.080000000000000000e+02 6.084810553826502044e+00
9.090000000000000000e+02 2.439463412196703729e+01
9.100000000000000000e+02 4.027629848610536811e+01
9.110000000000000000e+02 3.728203221530775124e+01
9.120000000000000000e+02 3.358924757311767451e+01
9.130000000000000000e+02 2.906299516797948712e+01
9.140000000000000000e+02 1.197020601120149408e+01
9.150000000000000000e+02 3.149286626011205570e+01
9.160000000000000000e+02 1.925170067399418272e+01
9.170000000000000000e+02 4.797850625181594353e+01
9.180000000000000000e+02 3.771587645301741532e+01
9.190000000000000000e+02 1.465009173372035178e+01
9.200000000000000000e+02 1.414359270068450769e+01
9.210000000000000000e+02 1.913212169052055245e+01
9.220000000000000000e+02 3.340410653463319335e+01
9.230000000000000000e+02 3.625596560672060065e+01
9.240000000000000000e+02 2.517035590126532085e+01
9.250000000000000000e+02 3.640588089815413042e+01
9.260000000000000000e+02 2.979592998755420297e+01
9.270000000000000000e+02 2.009590172370878847e+01
9.280000000000000000e+02 1.951279763534519418e+01
9.290000000000000000e+02 1.917651508815614037e+01
9.300000000000000000e+02 3.598962145167985938e+01
9.310000000000000000e+02 2.838433918481619855e+01
9.320000000000000000e+02 4.125075557768257184e+00
9.330000000000000000e+02 1.629927998257587518e+01
9.340000000000000000e+02 9.081532482057948386e+00
9.350000000000000000e+02 6.235210138975045169e+00
9.360000000000000000e+02 8.732757805434468779e+00
9.370000000000000000e+02 1.318994707175429504e+01
9.380000000000000000e+02 6.909741028002365226e+00
9.390000000000000000e+02 1.136992773905867837e+00
9.400000000000000000e+02 1.537746738282974590e+00
9.410000000000000000e+02 1.839262467952737268e+01
9.420000000000000000e+02 2.179848319850645311e+01
9.430000000000000000e+02 1.485751181045206160e+01
9.440000000000000000e+02 1.199163864965771253e+01
9.450000000000000000e+02 6.766980637419583111e+00
9.460000000000000000e+02 3.834788195769508246e+00
9.470000000000000000e+02 9.553536981953964613e+00
9.480000000000000000e+02 1.641903442854175665e+00
9.490000000000000000e+02 8.607031693695768482e+00
9.500000000000000000e+02 9.322769769756540370e-01
9.510000000000000000e+02 9.653889270690713786e+00
9.520000000000000000e+02 5.819896144368437163e+00
9.530000000000000000e+02 7.644914889856865514e+00
9.540000000000000000e+02 6.684063684712612918e+00
9.550000000000000000e+02 2.075019208255551817e+01
9.560000000000000000e+02 1.129960088550094888e+01
9.570000000000000000e+02 1.971614981746510153e+01
9.580000000000000000e+02 1.342248994399491835e+01
9.590000000000000000e+02 1.666763165691746451e+01
9.600000000000000000e+02 1.413558690728132738e+01
9.610000000000000000e+02 2.537732153702551585e+01
9.620000000000000000e+02 1.566072858950436952e+01
9.630000000000000000e+02 1.050077110765411348e+01
9.640000000000000000e+02 1.331472183364409201e+00
9.650000000000000000e+02 3.218763235843177029e+01
9.660000000000000000e+02 3.397846666321071041e+01
9.670000000000000000e+02 2.430638379589290210e+01
9.680000000000000000e+02 3.776056083592658297e+01
9.690000000000000000e+02 5.748834810037303811e+01
9.700000000000000000e+02 6.237782177349112089e+01
9.710000000000000000e+02 4.944653226509015553e+01
9.720000000000000000e+02 7.413108623392736263e+01
9.730000000000000000e+02 8.281358327732834823e+01
9.740000000000000000e+02 9.255675870566231822e+01
9.750000000000000000e+02 1.054944377851512343e+02
9.760000000000000000e+02 1.106300560049782007e+02
9.770000000000000000e+02 1.120702574984441924e+02
9.780000000000000000e+02 1.288851350342248168e+02
9.790000000000000000e+02 1.751486726197884423e+02
9.800000000000000000e+02 1.669762400124454587e+02
9.810000000000000000e+02 1.946602724123629571e+02
9.820000000000000000e+02 2.104706890271728810e+02
9.830000000000000000e+02 2.316415490976979186e+02
9.840000000000000000e+02 2.513851044181704424e+02
9.850000000000000000e+02 2.673014472516087494e+02
9.860000000000000000e+02 2.951689612735951300e+02
9.870000000000000000e+02 3.059176754615218670e+02
9.880000000000000000e+02 3.463444301804591987e+02
9.890000000000000000e+02 3.420506047707950756e+02
9.900000000000000000e+02 3.544473201203064150e+02
9.910000000000000000e+02 3.590586494088363452e+02
9.920000000000000000e+02 3.652320785566150221e+02
9.930000000000000000e+02 3.733934973864343192e+02
9.940000000000000000e+02 3.789512912466290118e+02
9.950000000000000000e+02 3.948840829531313830e+02
9.960000000000000000e+02 4.003195411325450550e+02
9.970000000000000000e+02 3.813947645924080803e+02
9.980000000000000000e+02 3.624549312318536636e+02
9.990000000000000000e+02 3.366885519809160314e+02
1.000000000000000000e+03 3.184347171677380857e+02
1.001000000000000000e+03 3.167596126556018135e+02
1.002000000000000000e+03 3.285305703319497752e+02
1.003000000000000000e+03 3.269414142857152683e+02
1.004000000000000000e+03 2.744613485477174777e+02
1.005000000000000000e+03 2.740327211618252363e+02
1.006000000000000000e+03 2.826477033195019999e+02
1.007000000000000000e+03 2.682997579710151967e+02
1.008000000000000000e+03 2.477271572614104969e+02
1.009000000000000000e+03 2.276080744813279466e+02
1.010000000000000000e+03 2.269915607883818325e+02
1.011000000000000000e+03 2.194479093167694828e+02
1.012000000000000000e+03 1.671307970954365487e+02
1.013000000000000000e+03 1.628715531120334390e+02
1.014000000000000000e+03 1.800565502074686606e+02
1.015000000000000000e+03 1.658329863070531189e+02
1.016000000000000000e+03 1.587986450207468749e+02
1.017000000000000000e+03 1.607201877593359711e+02
1.018000000000000000e+03 1.450966026970950793e+02
1.019000000000000000e+03 1.281439149068322934e+02
1.020000000000000000e+03 1.296389962655602801e+02
1.021000000000000000e+03 1.288251568464731633e+02
1.022000000000000000e+03 1.112905058091283479e+02
1.023000000000000000e+03 9.892170228215768191e+01
1.024000000000000000e+03 1.028380798755183605e+02
1.025000000000000000e+03 1.179165211618262248e+02
1.026000000000000000e+03 1.279456126556019910e+02
1.027000000000000000e+03 1.098068545643180300e+02
1.028000000000000000e+03 7.961358480331257681e+01
1.029000000000000000e+03 6.613730531120270939e+01
1.030000000000000000e+03 7.488197514522632048e+01
1.031000000000000000e+03 1.194759858921148492e+02
1.032000000000000000e+03 9.329538006224082380e+01
1.033000000000000000e+03 1.063478236514527708e+02
1.034000000000000000e+03 8.613889531120486254e+01
1.035000000000000000e+03 7.975460109958504518e+01
1.036000000000000000e+03 8.647156124223592144e+01
1.037000000000000000e+03 6.706721431535615352e+01
1.038000000000000000e+03 5.280559410788296049e+01
1.039000000000000000e+03 8.643781531120384898e+01
1.040000000000000000e+03 8.234497369294552982e+01
1.041000000000000000e+03 8.304038190871354175e+01
1.042000000000000000e+03 8.838689346473037745e+01
1.043000000000000000e+03 9.790179649377671467e+01
1.044000000000000000e+03 1.103915769709531531e+02
1.045000000000000000e+03 9.912292634854793505e+01
1.046000000000000000e+03 8.199544045643176560e+01
1.047000000000000000e+03 8.061269871369205475e+01
1.048000000000000000e+03 8.174955993788580599e+01
1.049000000000000000e+03 1.179784248962652100e+02
1.050000000000000000e+03 8.864102796680350593e+01
1.051000000000000000e+03 9.776018748962651728e+01
1.052000000000000000e+03 6.260385825726224596e+01
1.053000000000000000e+03 7.141680739130683264e+01
1.054000000000000000e+03 7.731080348547794756e+01
1.055000000000000000e+03 4.872249900415056345e+01
1.056000000000000000e+03 4.037397991701260480e+01
1.057000000000000000e+03 5.973002401656473381e+01
1.058000000000000000e+03 5.905247441908767314e+01
1.059000000000000000e+03 2.473982047717844068e+01
1.060000000000000000e+03 1.952065197095380711e+01
1.061000000000000000e+03 2.202372854772128630e+00
1.062000000000000000e+03 1.088191790456379948e+01
1.063000000000000000e+03 2.268721381742732390e+01
1.064000000000000000e+03 9.247228547716430214e+00
1.065000000000000000e+03 2.216027830227673334e+01
1.066000000000000000e+03 3.029550425311210660e+01
1.067000000000000000e+03 3.428144141078862361e+01
1.068000000000000000e+03 3.267468070539445790e+01
1.069000000000000000e+03 1.317134163900470334e+01
1.070000000000000000e+03 3.210357211618377704e+01
1.071000000000000000e+03 1.566265721991320348e+01
1.072000000000000000e+03 2.016510431535107983e+01
1.073000000000000000e+03 3.949874683229816696e+01
1.074000000000000000e+03 4.748599894190989801e+01
1.075000000000000000e+03 6.018685769709471600e+01
1.076000000000000000e+03 7.319297497925275309e+01
1.077000000000000000e+03 9.424054505176090402e+01
1.078000000000000000e+03 1.140839253112037142e+02
1.079000000000000000e+03 1.338827846473021452e+02
1.080000000000000000e+03 1.481020120331953080e+02
1.081000000000000000e+03 1.719192560165998032e+02
1.082000000000000000e+03 1.817012240165632591e+02
1.083000000000000000e+03 2.060419460580911561e+02
1.084000000000000000e+03 2.393170340248974526e+02
1.085000000000000000e+03 2.338823556016615157e+02
1.086000000000000000e+03 2.147878302904547070e+02
1.087000000000000000e+03 2.802271506224078053e+02
1.088000000000000000e+03 2.937097634854756052e+02
1.089000000000000000e+03 2.534223460580926144e+02
1.090000000000000000e+03 2.903640838174280248e+02
1.091000000000000000e+03 3.148728427385893269e+02
1.092000000000000000e+03 3.267620456431515663e+02
1.093000000000000000e+03 3.362044495850622638e+02
1.094000000000000000e+03 3.588926401656338498e+02
1.095000000000000000e+03 3.943165904564311859e+02
1.096000000000000000e+03 3.836266020746890035e+02
1.097000000000000000e+03 3.966482473029046218e+02
1.098000000000000000e+03 4.122417714285729176e+02
1.099000000000000000e+03 4.480053176348534407e+02
1.100000000000000000e+03 4.496657858921160482e+02
1.101000000000000000e+03 4.769285342323664736e+02
1.102000000000000000e+03 4.835232240663924017e+02
1.103000000000000000e+03 4.830844485477167041e+02
1.104000000000000000e+03 4.962392887966801140e+02
1.105000000000000000e+03 4.986912792531148853e+02
1.106000000000000000e+03 5.378551950310536540e+02
1.107000000000000000e+03 5.602472284232363791e+02
1.108000000000000000e+03 5.845908340248973900e+02
1.109000000000000000e+03 5.780555201244817454e+02
1.110000000000000000e+03 6.078350165975082291e+02
1.111000000000000000e+03 6.497211165975118092e+02
1.112000000000000000e+03 6.684966639004157969e+02
1.113000000000000000e+03 6.863446307053918645e+02
1.114000000000000000e+03 7.156221461697721224e+02
1.115000000000000000e+03 7.353606649377601343e+02
1.116000000000000000e+03 7.625165255186659579e+02
1.117000000000000000e+03 8.224977858921154166e+02
1.118000000000000000e+03 8.294949043568467459e+02
1.119000000000000000e+03 8.657817900414935366e+02
1.120000000000000000e+03 8.733195780082986630e+02
1.121000000000000000e+03 9.051565560165977331e+02
1.122000000000000000e+03 9.370041224066402492e+02
1.123000000000000000e+03 9.449426614906831219e+02
1.124000000000000000e+03 9.281865848547723772e+02
1.125000000000000000e+03 9.096371647302902375e+02
1.126000000000000000e+03 9.281162342323669918e+02
1.127000000000000000e+03 9.421221742738592866e+02
1.128000000000000000e+03 9.301079174273857006e+02
1.129000000000000000e+03 9.205413970954328988e+02
1.130000000000000000e+03 8.715745560166000132e+02
1.131000000000000000e+03 8.856272400414935646e+02
1.132000000000000000e+03 8.741816514522797661e+02
1.133000000000000000e+03 8.527906626556016363e+02
1.134000000000000000e+03 8.415518429460594234e+02
1.135000000000000000e+03 8.493784024844732130e+02
1.136000000000000000e+03 8.634031406638968065e+02
1.137000000000000000e+03 8.018913925311238700e+02
1.138000000000000000e+03 8.040900618257262522e+02
1.139000000000000000e+03 7.564507871369271470e+02
1.140000000000000000e+03 7.687980724066412677e+02
1.141000000000000000e+03 7.262513628630724725e+02
1.142000000000000000e+03 6.818425734439827011e+02
1.143000000000000000e+03 6.586498745341610856e+02
1.144000000000000000e+03 6.431863477178433186e+02
1.145000000000000000e+03 6.123328020746887432e+02
1.146000000000000000e+03 5.644123219916982634e+02
1.147000000000000000e+03 5.323185439834026056e+02
1.148000000000000000e+03 5.084786556016609325e+02
1.149000000000000000e+03 4.322795437759313586e+02
1.150000000000000000e+03 4.288377798755192885e+02
1.151000000000000000e+03 4.028877354771807973e+02
1.152000000000000000e+03 3.648786575569351953e+02
1.153000000000000000e+03 3.338571726141063891e+02
1.154000000000000000e+03 3.217818008298766586e+02
1.155000000000000000e+03 2.896164485477193580e+02
1.156000000000000000e+03 2.621425647302915536e+02
1.157000000000000000e+03 2.466136153526941257e+02
1.158000000000000000e+03 1.970122622406632615e+02
1.159000000000000000e+03 2.148385987551866947e+02
1.160000000000000000e+03 1.986567074688781531e+02
1.161000000000000000e+03 1.947960020746893122e+02
1.162000000000000000e+03 1.763278369294609149e+02
1.163000000000000000e+03 1.552504821576754637e+02
1.164000000000000000e+03 1.402305650103527626e+02
1.165000000000000000e+03 1.544804506224053853e+02
1.166000000000000000e+03 1.407757255186713508e+02
1.167000000000000000e+03 1.177201168049803925e+02
1.168000000000000000e+03 1.210131672877862741e+02
1.169000000000000000e+03 1.015377026970954120e+02
1.170000000000000000e+03 9.973285643153781166e+01
1.171000000000000000e+03 1.295870298755176293e+02
1.172000000000000000e+03 7.961383488612972315e+01
1.173000000000000000e+03 7.187786497925331730e+01
1.174000000000000000e+03 6.669423481327713432e+01
1.175000000000000000e+03 5.927917184647333215e+01
1.176000000000000000e+03 8.324875064315324380e+01
1.177000000000000000e+03 7.156327950207096933e+01
1.178000000000000000e+03 4.252533514522882285e+01
1.179000000000000000e+03 4.693252315352674486e+01
1.180000000000000000e+03 5.201481066390020658e+01
1.181000000000000000e+03 4.919098860996008682e+01
1.182000000000000000e+03 5.752075352697260513e+01
1.183000000000000000e+03 2.668913502074680011e+01
1.184000000000000000e+03 2.829017414937781183e+01
1.185000000000000000e+03 2.542986481327872994e+01
1.186000000000000000e+03 6.960651734440095773e+00
1.187000000000000000e+03 1.107253550622481342e+01
1.188000000000000000e+03 1.465769958506251847e+01
1.189000000000000000e+03 4.923805269709967902e+00
1.190000000000000000e+03 9.782495514232927292e-01
1.191000000000000000e+03 1.050919518257375884e+01
1.192000000000000000e+03 2.394532973028951517e+01
1.193000000000000000e+03 2.136841000000000079e+01
1.194000000000000000e+03 1.054913722821535593e+01
1.195000000000000000e+03 1.338814622405386068e+00
1.196000000000000000e+03 8.394490937759506721e+00
1.197000000000000000e+03 2.056251037267312842e+00
1.198000000000000000e+03 1.251091211618269305e+01
1.199000000000000000e+03 2.180638946058049754e+01
1.200000000000000000e+03 1.479552228215784027e+01
1.201000000000000000e+03 2.518839072463392448e+00
1.202000000000000000e+03 1.618580775933314442e+01
1.203000000000000000e+03 2.623416522821637642e+01
1.204000000000000000e+03 9.385554941908686999e+00
1.205000000000000000e+03 2.392267850622444669e+01
1.206000000000000000e+03 4.590965684648436351e+00
1.207000000000000000e+03 6.924900983402419108e+00
1.208000000000000000e+03 4.765339101659540333e+00
1.209000000000000000e+03 7.852974574688646570e+00
1.210000000000000000e+03 3.804897468879473443e+00
1.211000000000000000e+03 7.084481120332904780e+00
1.212000000000000000e+03 1.542972105394252935e+01
1.213000000000000000e+03 2.162844263485809648e+01
1.214000000000000000e+03 1.257976837551902172e+01
1.215000000000000000e+03 1.339527331950212030e+01
1.216000000000000000e+03 2.624086375518937331e+01
1.217000000000000000e+03 1.644779993775885529e+01
1.218000000000000000e+03 1.024656130705502477e+01
1.219000000000000000e+03 3.815817514523418552e+00
1.220000000000000000e+03 3.225034842323589857e+01
1.221000000000000000e+03 3.694058224066373697e+01
1.222000000000000000e+03 1.751919020746842648e+01
1.223000000000000000e+03 2.435902373443849456e+01
1.224000000000000000e+03 3.897446875518667042e+01
1.225000000000000000e+03 3.015711315352575639e+01
1.226000000000000000e+03 1.505249304347818473e+01
1.227000000000000000e+03 4.733006734440362351e+00
1.228000000000000000e+03 1.081813308298820431e+01
1.229000000000000000e+03 4.733748896265803552e+01
1.230000000000000000e+03 5.731454937888180723e+01
1.231000000000000000e+03 5.252437813278003631e+01
1.232000000000000000e+03 4.123082114107815244e+01
1.233000000000000000e+03 3.952144740663885614e+01
1.234000000000000000e+03 5.355764826086954855e+01
1.235000000000000000e+03 4.541090070539405588e+01
1.236000000000000000e+03 5.395392336099689601e+01
1.237000000000000000e+03 6.138728867219946039e+01
1.238000000000000000e+03 5.089537767634859478e+01
1.239000000000000000e+03 5.690543587137188553e+01
1.240000000000000000e+03 6.817239412863214909e+01
1.241000000000000000e+03 5.081340037344427429e+01
1.242000000000000000e+03 4.549748294605804233e+01
1.243000000000000000e+03 4.896803622406604717e+01
1.244000000000000000e+03 5.616068232365143587e+01
1.245000000000000000e+03 4.237933145228203102e+01
1.246000000000000000e+03 7.279690800830098851e+01
1.247000000000000000e+03 5.417580910788471016e+01
1.248000000000000000e+03 5.020770151452282448e+01
1.249000000000000000e+03 4.216978273858896387e+01
1.250000000000000000e+03 6.092426628630874319e+01
1.251000000000000000e+03 6.413772020746986868e+01
1.252000000000000000e+03 4.868303107883825476e+01
1.253000000000000000e+03 4.996772755186677273e+01
1.254000000000000000e+03 5.798449717842075302e+01
1.255000000000000000e+03 7.012609219461704413e+01
1.256000000000000000e+03 4.150294653526823652e+01
1.257000000000000000e+03 3.573868468879643245e+01
1.258000000000000000e+03 5.873101151452194557e+01
1.259000000000000000e+03 6.319996602484463466e+01
1.260000000000000000e+03 4.706635286306861587e+01
1.261000000000000000e+03 6.232209925311212828e+01
1.262000000000000000e+03 3.265560298755197266e+01
1.263000000000000000e+03 2.940531739130593536e+01
1.264000000000000000e+03 5.650442753111838812e+01
1.265000000000000000e+03 5.038794989626648402e+01
1.266000000000000000e+03 5.246350946058314690e+01
1.267000000000000000e+03 6.677288466804584743e+01
1.268000000000000000e+03 3.328156746888001294e+01
1.269000000000000000e+03 3.937623556016602322e+01
1.270000000000000000e+03 3.925114157676328119e+01
1.271000000000000000e+03 3.576531734439816290e+01
1.272000000000000000e+03 5.170807215767615617e+01
1.273000000000000000e+03 5.899474624481329954e+01
1.274000000000000000e+03 3.228845973028919758e+01
1.275000000000000000e+03 3.126637859213254700e+01
1.276000000000000000e+03 2.557778535269700626e+01
1.277000000000000000e+03 3.885770199170308814e+01
1.278000000000000000e+03 3.913674315352849931e+01
1.279000000000000000e+03 3.134622804979238708e+01
1.280000000000000000e+03 4.400592784232476617e+01
1.281000000000000000e+03 3.301725251037319708e+01
1.282000000000000000e+03 3.804495387966294828e+00
1.283000000000000000e+03 2.584040634854802221e+01
1.284000000000000000e+03 2.880698813664531954e+01
1.285000000000000000e+03 1.444822684647399313e+01
1.286000000000000000e+03 3.870204813278006917e+00
1.287000000000000000e+03 3.486831800830064054e+01
1.288000000000000000e+03 3.968683794605916404e+01
1.289000000000000000e+03 2.503264456431563190e+01
1.290000000000000000e+03 2.589416024896262414e+01
1.291000000000000000e+03 1.501541582572557942e+01
1.292000000000000000e+03 1.359973194616811876e+00
1.293000000000000000e+03 1.893380535269753295e+01
1.294000000000000000e+03 3.493793336099458458e+01
1.295000000000000000e+03 2.301954958506280491e+01
1.296000000000000000e+03 2.745396854771725970e+01
1.297000000000000000e+03 4.040591414937790660e+01
1.298000000000000000e+03 3.660946688796745718e+01
1.299000000000000000e+03 1.948312572614224436e+01
1.300000000000000000e+03 2.632495578838154771e+00
1.301000000000000000e+03 2.592893663900327894e+01
1.302000000000000000e+03 1.123407184647371615e+01
1.303000000000000000e+03 1.153370814107840481e+01
1.304000000000000000e+03 3.631108869565272812e+01
1.305000000000000000e+03 1.525430124689099642e+01
1.306000000000000000e+03 1.002270504356791214e+01
1.307000000000000000e+03 5.232037051866921473e+00
1.308000000000000000e+03 3.617648219917799945e+00
1.309000000000000000e+03 1.854027543568347980e+01
1.310000000000000000e+03 2.591939336099585489e+01
1.311000000000000000e+03 2.117635535269674563e+01
1.312000000000000000e+03 1.441322497925362178e+01
1.313000000000000000e+03 1.063833306418223223e+01
1.314000000000000000e+03 1.354600609958506041e+01
1.315000000000000000e+03 6.243132686721799551e+00
1.316000000000000000e+03 4.131734881743127197e+00
1.317000000000000000e+03 4.189023526971125677e-01
1.318000000000000000e+03 2.054149273858511648e+00
1.319000000000000000e+03 0.000000000000000000e+00
1.320000000000000000e+03 0.000000000000000000e+00
1.321000000000000000e+03 0.000000000000000000e+00
1.322000000000000000e+03 0.000000000000000000e+00
1.323000000000000000e+03 0.000000000000000000e+00
1.324000000000000000e+03 0.000000000000000000e+00
1.325000000000000000e+03 0.000000000000000000e+00
1.326000000000000000e+03 0.000000000000000000e+00
1.327000000000000000e+03 0.000000000000000000e+00
1.328000000000000000e+03 0.000000000000000000e+00
1.329000000000000000e+03 0.000000000000000000e+00
1.330000000000000000e+03 0.000000000000000000e+00
1.331000000000000000e+03 0.000000000000000000e+00
1.332000000000000000e+03 0.000000000000000000e+00
1.333000000000000000e+03 0.000000000000000000e+00
1.334000000000000000e+03 0.000000000000000000e+00
1.335000000000000000e+03 0.000000000000000000e+00
1.336000000000000000e+03 0.000000000000000000e+00
1.337000000000000000e+03 0.000000000000000000e+00
1.338000000000000000e+03 0.000000000000000000e+00
1.339000000000000000e+03 0.000000000000000000e+00
1.340000000000000000e+03 0.000000000000000000e+00
1.341000000000000000e+03 0.000000000000000000e+00
1.342000000000000000e+03 0.000000000000000000e+00
1.343000000000000000e+03 0.000000000000000000e+00
1.344000000000000000e+03 0.000000000000000000e+00
1.345000000000000000e+03 0.000000000000000000e+00
1.346000000000000000e+03 0.000000000000000000e+00
1.347000000000000000e+03 0.000000000000000000e+00
1.348000000000000000e+03 0.000000000000000000e+00
1.349000000000000000e+03 0.000000000000000000e+00
1.350000000000000000e+03 0.000000000000000000e+00
1.351000000000000000e+03 0.000000000000000000e+00
1.352000000000000000e+03 0.000000000000000000e+00
1.353000000000000000e+03 0.000000000000000000e+00
1.354000000000000000e+03 0.000000000000000000e+00
1.355000000000000000e+03 0.000000000000000000e+00
1.356000000000000000e+03 0.000000000000000000e+00
1.357000000000000000e+03 0.000000000000000000e+00
1.358000000000000000e+03 0.000000000000000000e+00
1.359000000000000000e+03 0.000000000000000000e+00
1.360000000000000000e+03 0.000000000000000000e+00
1.361000000000000000e+03 0.000000000000000000e+00
1.362000000000000000e+03 0.000000000000000000e+00
1.363000000000000000e+03 0.000000000000000000e+00
1.364000000000000000e+03 0.000000000000000000e+00
1.365000000000000000e+03 0.000000000000000000e+00
1.366000000000000000e+03 0.000000000000000000e+00
1.367000000000000000e+03 0.000000000000000000e+00
1.368000000000000000e+03 0.000000000000000000e+00
1.369000000000000000e+03 0.000000000000000000e+00
1.370000000000000000e+03 0.000000000000000000e+00
1.371000000000000000e+03 0.000000000000000000e+00
1.372000000000000000e+03 0.000000000000000000e+00
1.373000000000000000e+03 0.000000000000000000e+00
1.374000000000000000e+03 0.000000000000000000e+00
1.375000000000000000e+03 0.000000000000000000e+00
1.376000000000000000e+03 0.000000000000000000e+00
1.377000000000000000e+03 0.000000000000000000e+00
1.378000000000000000e+03 0.000000000000000000e+00
1.379000000000000000e+03 0.000000000000000000e+00
1.380000000000000000e+03 0.000000000000000000e+00
1.381000000000000000e+03 0.000000000000000000e+00
1.382000000000000000e+03 0.000000000000000000e+00
1.383000000000000000e+03 0.000000000000000000e+00
1.384000000000000000e+03 0.000000000000000000e+00
1.385000000000000000e+03 0.000000000000000000e+00
1.386000000000000000e+03 0.000000000000000000e+00
1.387000000000000000e+03 0.000000000000000000e+00
1.388000000000000000e+03 0.000000000000000000e+00
1.389000000000000000e+03 0.000000000000000000e+00
1.390000000000000000e+03 0.000000000000000000e+00
1.391000000000000000e+03 0.000000000000000000e+00
1.392000000000000000e+03 0.000000000000000000e+00
1.393000000000000000e+03 0.000000000000000000e+00
1.394000000000000000e+03 0.000000000000000000e+00
1.395000000000000000e+03 0.000000000000000000e+00
1.396000000000000000e+03 0.000000000000000000e+00
1.397000000000000000e+03 0.000000000000000000e+00
1.398000000000000000e+03 0.000000000000000000e+00
1.399000000000000000e+03 0.000000000000000000e+00
1.400000000000000000e+03 0.000000000000000000e+00
1.401000000000000000e+03 0.000000000000000000e+00
1.402000000000000000e+03 0.000000000000000000e+00
1.403000000000000000e+03 0.000000000000000000e+00
1.404000000000000000e+03 0.000000000000000000e+00
1.405000000000000000e+03 0.000000000000000000e+00
1.406000000000000000e+03 0.000000000000000000e+00
1.407000000000000000e+03 0.000000000000000000e+00
1.408000000000000000e+03 0.000000000000000000e+00
1.409000000000000000e+03 0.000000000000000000e+00
1.410000000000000000e+03 0.000000000000000000e+00
1.411000000000000000e+03 0.000000000000000000e+00
1.412000000000000000e+03 0.000000000000000000e+00
1.413000000000000000e+03 0.000000000000000000e+00
1.414000000000000000e+03 0.000000000000000000e+00
1.415000000000000000e+03 0.000000000000000000e+00
1.416000000000000000e+03 0.000000000000000000e+00
1.417000000000000000e+03 0.000000000000000000e+00
1.418000000000000000e+03 0.000000000000000000e+00
1.419000000000000000e+03 0.000000000000000000e+00
1.420000000000000000e+03 0.000000000000000000e+00
1.421000000000000000e+03 0.000000000000000000e+00
1.422000000000000000e+03 0.000000000000000000e+00
1.423000000000000000e+03 0.000000000000000000e+00
1.424000000000000000e+03 0.000000000000000000e+00
1.425000000000000000e+03 0.000000000000000000e+00
1.426000000000000000e+03 0.000000000000000000e+00
1.427000000000000000e+03 0.000000000000000000e+00
1.428000000000000000e+03 0.000000000000000000e+00
1.429000000000000000e+03 0.000000000000000000e+00
1.430000000000000000e+03 0.000000000000000000e+00
1.431000000000000000e+03 0.000000000000000000e+00
1.432000000000000000e+03 0.000000000000000000e+00
1.433000000000000000e+03 0.000000000000000000e+00
1.434000000000000000e+03 0.000000000000000000e+00
1.435000000000000000e+03 0.000000000000000000e+00
1.436000000000000000e+03 0.000000000000000000e+00
1.437000000000000000e+03 0.000000000000000000e+00
1.438000000000000000e+03 0.000000000000000000e+00
1.439000000000000000e+03 0.000000000000000000e+00
1.440000000000000000e+03 0.000000000000000000e+00
1.441000000000000000e+03 0.000000000000000000e+00
1.442000000000000000e+03 0.000000000000000000e+00
1.443000000000000000e+03 0.000000000000000000e+00
1.444000000000000000e+03 0.000000000000000000e+00
1.445000000000000000e+03 0.000000000000000000e+00
1.446000000000000000e+03 0.000000000000000000e+00
1.447000000000000000e+03 0.000000000000000000e+00
1.448000000000000000e+03 0.000000000000000000e+00
1.449000000000000000e+03 0.000000000000000000e+00
1.450000000000000000e+03 0.000000000000000000e+00
1.451000000000000000e+03 0.000000000000000000e+00
1.452000000000000000e+03 0.000000000000000000e+00
1.453000000000000000e+03 0.000000000000000000e+00
1.454000000000000000e+03 0.000000000000000000e+00
1.455000000000000000e+03 0.000000000000000000e+00
1.456000000000000000e+03 0.000000000000000000e+00
1.457000000000000000e+03 0.000000000000000000e+00
1.458000000000000000e+03 0.000000000000000000e+00
1.459000000000000000e+03 0.000000000000000000e+00
1.460000000000000000e+03 0.000000000000000000e+00
1.461000000000000000e+03 0.000000000000000000e+00
1.462000000000000000e+03 0.000000000000000000e+00
1.463000000000000000e+03 0.000000000000000000e+00
1.464000000000000000e+03 0.000000000000000000e+00
1.465000000000000000e+03 0.000000000000000000e+00
1.466000000000000000e+03 0.000000000000000000e+00
1.467000000000000000e+03 0.000000000000000000e+00
1.468000000000000000e+03 0.000000000000000000e+00
1.469000000000000000e+03 0.000000000000000000e+00
1.470000000000000000e+03 0.000000000000000000e+00
1.471000000000000000e+03 0.000000000000000000e+00
1.472000000000000000e+03 0.000000000000000000e+00
1.473000000000000000e+03 0.000000000000000000e+00
1.474000000000000000e+03 0.000000000000000000e+00
1.475000000000000000e+03 0.000000000000000000e+00
1.476000000000000000e+03 0.000000000000000000e+00
1.477000000000000000e+03 0.000000000000000000e+00
1.478000000000000000e+03 0.000000000000000000e+00
1.479000000000000000e+03 0.000000000000000000e+00
1.480000000000000000e+03 0.000000000000000000e+00
1.481000000000000000e+03 0.000000000000000000e+00
1.482000000000000000e+03 0.000000000000000000e+00
1.483000000000000000e+03 0.000000000000000000e+00
1.484000000000000000e+03 0.000000000000000000e+00
1.485000000000000000e+03 0.000000000000000000e+00
1.486000000000000000e+03 0.000000000000000000e+00
1.487000000000000000e+03 0.000000000000000000e+00
1.488000000000000000e+03 0.000000000000000000e+00
1.489000000000000000e+03 0.000000000000000000e+00
1.490000000000000000e+03 0.000000000000000000e+00
1.491000000000000000e+03 0.000000000000000000e+00
1.492000000000000000e+03 0.000000000000000000e+00
1.493000000000000000e+03 0.000000000000000000e+00
1.494000000000000000e+03 0.000000000000000000e+00
1.495000000000000000e+03 0.000000000000000000e+00
1.496000000000000000e+03 0.000000000000000000e+00
1.497000000000000000e+03 0.000000000000000000e+00
1.498000000000000000e+03 0.000000000000000000e+00
1.499000000000000000e+03 0.000000000000000000e+00
1.500000000000000000e+03 0.000000000000000000e+00
