1.010000000000000000e+02 4.823168470643005717e-02
1.020000000000000000e+02 9.646336941286011435e-02
1.030000000000000000e+02 1.446950541192901785e-01
1.040000000000000000e+02 1.929267388257202287e-01
1.050000000000000000e+02 2.411584235321502789e-01
1.060000000000000000e+02 2.893901082385803569e-01
1.070000000000000000e+02 3.376217929450103794e-01
1.080000000000000000e+02 3.858534776514404574e-01
1.090000000000000000e+02 4.340851623578705354e-01
1.100000000000000000e+02 4.823168470643005579e-01
1.110000000000000000e+02 5.305485317707305803e-01
1.120000000000000000e+02 5.787802164771607139e-01
1.130000000000000000e+02 6.270119011835907363e-01
1.140000000000000000e+02 6.752435858900207588e-01
1.150000000000000000e+02 7.234752705964508923e-01
1.160000000000000000e+02 7.717069553028809148e-01
1.170000000000000000e+02 8.199386400093109373e-01
1.180000000000000000e+02 8.681703247157410708e-01
1.190000000000000000e+02 9.164020094221710933e-01
1.200000000000000000e+02 9.436528826315946361e-01
1.210000000000000000e+02 9.037669214035172205e-01
1.220000000000000000e+02 8.638809601754396938e-01
1.230000000000000000e+02 8.239949989473622782e-01
1.240000000000000000e+02 7.549813020798421537e-01
1.250000000000000000e+02 6.829014599999998492e-01
1.260000000000000000e+02 6.108216179201575446e-01
1.270000000000000000e+02 5.596345346790744246e-01
1.280000000000000000e+02 5.241169291614690140e-01
1.290000000000000000e+02 4.885993236438634924e-01
1.300000000000000000e+02 4.508432010606177043e-01
1.310000000000000000e+02 4.059240118989959623e-01
1.320000000000000000e+02 3.610048227373741647e-01
1.330000000000000000e+02 3.160856335757523672e-01
1.340000000000000000e+02 2.877493511462760889e-01
1.350000000000000000e+02 2.611586764328452936e-01
1.360000000000000000e+02 2.345680017194144984e-01
1.370000000000000000e+02 2.156650467106768221e-01
1.380000000000000000e+02 1.985710116166416739e-01
1.390000000000000000e+02 1.814769765226065257e-01
1.400000000000000000e+02 1.611721608571427544e-01
1.410000000000000000e+02 1.373354798204616534e-01
1.420000000000000000e+02 1.134987987837805384e-01
1.430000000000000000e+02 9.175143435548116511e-02
1.440000000000000000e+02 8.253967707899578787e-02
1.450000000000000000e+02 7.332791980251039676e-02
1.460000000000000000e+02 6.411616252602500565e-02
1.470000000000000000e+02 5.644193416591520435e-02
1.480000000000000000e+02 4.912948625346726800e-02
1.490000000000000000e+02 4.181703834101933859e-02
1.500000000000000000e+02 3.509247985714283175e-02
1.510000000000000000e+02 2.901460097926393533e-02
1.520000000000000000e+02 2.293672210138503892e-02
1.530000000000000000e+02 1.741508974054849224e-02
1.540000000000000000e+02 1.523085860901077053e-02
1.550000000000000000e+02 1.304662747747304535e-02
1.560000000000000000e+02 1.086239634593532191e-02
1.570000000000000000e+02 7.797020335200435977e-03
1.580000000000000000e+02 4.524310995345225649e-03
1.590000000000000000e+02 1.251601655490016188e-03
1.600000000000000000e+02 1.808885259053068587e-04
1.610000000000000000e+02 -9.044616228409273380e-06
1.620000000000000000e+02 -1.989777583621253512e-04
1.630000000000000000e+02 -2.803782462194251836e-04
1.640000000000000000e+02 -1.854113902525697250e-04
1.650000000000000000e+02 -9.044453428571426652e-05
1.660000000000000000e+02 1.944598407178204367e-04
1.670000000000000000e+02 4.278034824292816299e-03
1.680000000000000000e+02 8.361609807867813327e-03
1.690000000000000000e+02 1.244518479144280862e-02
1.700000000000000000e+02 1.917426403502498627e-02
1.710000000000000000e+02 2.696152276050755095e-02
1.720000000000000000e+02 3.474878148599011563e-02
1.730000000000000000e+02 4.528554861904478257e-02
1.740000000000000000e+02 6.029031202380810694e-02
1.750000000000000000e+02 7.529507542857143132e-02
1.760000000000000000e+02 9.185551750193327036e-02
1.770000000000000000e+02 1.395288795752954725e-01
1.780000000000000000e+02 1.872022416486577301e-01
1.790000000000000000e+02 2.348756037220199322e-01
1.800000000000000000e+02 2.757654962187478520e-01
1.810000000000000000e+02 3.139420578656246241e-01
1.820000000000000000e+02 3.521186195125013962e-01
1.830000000000000000e+02 3.843231199235925821e-01
1.840000000000000000e+02 4.068229228467906688e-01
1.850000000000000000e+02 4.293227257699887556e-01
1.860000000000000000e+02 4.440374612790813358e-01
1.870000000000000000e+02 4.392891195307395691e-01
1.880000000000000000e+02 4.345407777823978024e-01
1.890000000000000000e+02 4.297924360340560357e-01
1.900000000000000000e+02 4.034278485714285489e-01
1.910000000000000000e+02 3.759824261260062972e-01
1.920000000000000000e+02 3.485370036805839900e-01
1.930000000000000000e+02 3.145072593353217538e-01
1.940000000000000000e+02 2.764256654985093320e-01
1.950000000000000000e+02 2.383440716616969657e-01
1.960000000000000000e+02 2.030842742492043884e-01
1.970000000000000000e+02 1.748791160440461012e-01
1.980000000000000000e+02 1.466739578388877863e-01
1.990000000000000000e+02 1.184687996337294852e-01
2.000000000000000000e+02 9.921765285714286009e-02
2.010000000000000000e+02 8.041421605370614734e-02
2.020000000000000000e+02 6.161077925026944152e-02
2.030000000000000000e+02 4.903901687208635923e-02
2.040000000000000000e+02 4.030209234593538914e-02
2.050000000000000000e+02 3.156516781978442598e-02
2.060000000000000000e+02 2.400956191564441664e-02
2.070000000000000000e+02 1.940731458668984444e-02
2.080000000000000000e+02 1.480506725773526877e-02
2.090000000000000000e+02 1.057295746035146096e-02
2.100000000000000000e+02 7.913893308479781619e-03
2.110000000000000000e+02 5.254829156608102278e-03
2.120000000000000000e+02 2.595765004736422937e-03
2.130000000000000000e+02 1.890291535020568753e-03
2.140000000000000000e+02 1.510424109653142263e-03
2.150000000000000000e+02 1.130556684285715773e-03
2.160000000000000000e+02 7.506892589182890662e-04
2.170000000000000000e+02 3.708218335508625760e-04
2.180000000000000000e+02 -9.045591816564130944e-06
2.190000000000000000e+02 -3.165558699999999870e-04
2.200000000000000000e+02 -3.165558699999999870e-04
2.210000000000000000e+02 -3.165558699999999870e-04
2.220000000000000000e+02 -3.165558699999999870e-04
2.230000000000000000e+02 9.044358975999485612e-05
2.240000000000000000e+02 5.652778755942822891e-04
2.250000000000000000e+02 1.040112161428569668e-03
2.260000000000000000e+02 3.305751615069611564e-03
2.270000000000000000e+02 7.199392658710667380e-03
2.280000000000000000e+02 1.109303370235172406e-02
2.290000000000000000e+02 1.426449474685000281e-02
2.300000000000000000e+02 1.436676662237500179e-02
2.310000000000000000e+02 1.446903849790000078e-02
2.320000000000000000e+02 1.442590075800249776e-02
2.330000000000000000e+02 1.300140220699959673e-02
2.340000000000000000e+02 1.157690365599669570e-02
2.350000000000000000e+02 1.015240510499379467e-02
2.360000000000000000e+02 9.306745264786265778e-03
2.370000000000000000e+02 8.641977270018268500e-03
2.380000000000000000e+02 7.977209275250271223e-03
2.390000000000000000e+02 7.108941559602253990e-03
2.400000000000000000e+02 5.969339300000000258e-03
2.410000000000000000e+02 4.829737040397746525e-03
2.420000000000000000e+02 3.681090487316397448e-03
2.430000000000000000e+02 2.446525045447278494e-03
2.440000000000000000e+02 1.211959603578159541e-03
2.450000000000000000e+02 -2.260583829095941244e-05
2.460000000000000000e+02 -3.165558699999999870e-04
2.470000000000000000e+02 -3.165558699999999870e-04
2.480000000000000000e+02 -3.165558699999999870e-04
2.490000000000000000e+02 5.381429846960353487e-04
2.500000000000000000e+02 2.532446959999999896e-03
2.510000000000000000e+02 4.526750935303964878e-03
2.520000000000000000e+02 6.331117399999999958e-03
2.530000000000000000e+02 6.331117399999999958e-03
2.540000000000000000e+02 6.331117399999999958e-03
2.550000000000000000e+02 6.331117399999999958e-03
2.560000000000000000e+02 4.431780280662874633e-03
2.570000000000000000e+02 2.532443161325749308e-03
2.580000000000000000e+02 6.331060419886239826e-04
2.590000000000000000e+02 0.000000000000000000e+00
2.600000000000000000e+02 0.000000000000000000e+00
2.610000000000000000e+02 0.000000000000000000e+00
2.620000000000000000e+02 2.215871156960093910e-04
2.630000000000000000e+02 8.863551104640062352e-04
2.640000000000000000e+02 1.551123105232002971e-03
2.650000000000000000e+02 2.215891099999999815e-03
2.660000000000000000e+02 1.456156249265146835e-03
2.670000000000000000e+02 6.964213985302936376e-04
2.680000000000000000e+02 -6.331345220455955949e-05
2.690000000000000000e+02 -3.165558699999999870e-04
2.700000000000000000e+02 -3.165558699999999870e-04
2.710000000000000000e+02 -3.165558699999999870e-04
2.720000000000000000e+02 -3.165558699999999870e-04
2.730000000000000000e+02 -3.165558699999999870e-04
2.740000000000000000e+02 -3.165558699999999870e-04
2.750000000000000000e+02 -3.165558699999999870e-04
2.760000000000000000e+02 -1.120122029499482806e-04
2.770000000000000000e+02 9.253146410010342588e-05
2.780000000000000000e+02 2.970751311501551866e-04
2.790000000000000000e+02 2.306336573954261536e-04
2.800000000000000000e+02 1.356668014285698819e-04
2.810000000000000000e+02 4.069994546171363733e-05
2.820000000000000000e+02 2.713345610971671837e-04
2.830000000000000000e+02 7.461688559314554482e-04
2.840000000000000000e+02 1.221003150765743658e-03
2.850000000000000000e+02 2.668133335980022933e-03
2.860000000000000000e+02 7.226528699189346469e-03
2.870000000000000000e+02 1.178492406239866827e-02
2.880000000000000000e+02 1.634331942560799181e-02
2.890000000000000000e+02 1.669153875210975177e-02
2.900000000000000000e+02 1.659657185714285763e-02
2.910000000000000000e+02 1.650160496217596001e-02
2.920000000000000000e+02 1.608103664189263621e-02
2.930000000000000000e+02 1.541626867712467958e-02
2.940000000000000000e+02 1.475150071235672294e-02
2.950000000000000000e+02 1.429023709971379702e-02
2.960000000000000000e+02 1.448017031984735747e-02
2.970000000000000000e+02 1.467010353998091966e-02
2.980000000000000000e+02 1.486003676011448185e-02
2.990000000000000000e+02 1.423040577760689707e-02
3.000000000000000000e+02 1.351450297200862058e-02
3.010000000000000000e+02 1.279860016641034583e-02
3.020000000000000000e+02 1.212409203716103070e-02
3.030000000000000000e+02 1.145932407239307581e-02
3.040000000000000000e+02 1.079455610762511918e-02
3.050000000000000000e+02 9.632343157142899195e-03
3.060000000000000000e+02 7.922939677739413572e-03
3.070000000000000000e+02 6.213536198335928816e-03
3.080000000000000000e+02 4.816172719570153971e-03
3.090000000000000000e+02 5.291005559904478350e-03
3.100000000000000000e+02 5.765838400238802730e-03
3.110000000000000000e+02 6.240671240573127110e-03
3.120000000000000000e+02 6.177362271229669410e-03
3.130000000000000000e+02 5.987428571295971835e-03
3.140000000000000000e+02 5.797494871362274260e-03
3.150000000000000000e+02 6.512006457142814793e-03
3.160000000000000000e+02 8.221409756546119857e-03
3.170000000000000000e+02 9.930813055949424054e-03
3.180000000000000000e+02 1.146384564957069439e-02
3.190000000000000000e+02 1.193867869990459900e-02
3.200000000000000000e+02 1.241351175023850187e-02
3.210000000000000000e+02 1.288834480057240647e-02
3.220000000000000000e+02 1.148854641844447924e-02
3.230000000000000000e+02 9.647647389939336543e-03
3.240000000000000000e+02 7.806748361434194712e-03
3.250000000000000000e+02 7.280785100000000155e-03
3.260000000000000000e+02 7.280785100000000155e-03
3.270000000000000000e+02 7.280785100000000155e-03
3.280000000000000000e+02 8.221403350294715501e-03
3.290000000000000000e+02 1.069054168943306231e-02
3.300000000000000000e+02 1.315968002857140912e-02
3.310000000000000000e+02 1.549314870584670746e-02
3.320000000000000000e+02 1.511328112597912741e-02
3.330000000000000000e+02 1.473341354611154563e-02
3.340000000000000000e+02 1.435354596624396559e-02
3.350000000000000000e+02 1.444851509971380177e-02
3.360000000000000000e+02 1.473341492991413898e-02
3.370000000000000000e+02 1.501831476011447619e-02
3.380000000000000000e+02 1.566499107371905480e-02
3.390000000000000000e+02 1.689956010828809474e-02
3.400000000000000000e+02 1.813412914285713468e-02
3.410000000000000000e+02 1.931895264707664608e-02
3.420000000000000000e+02 1.950888643701043784e-02
3.430000000000000000e+02 1.969882022694422613e-02
3.440000000000000000e+02 1.988875401687801789e-02
3.450000000000000000e+02 1.994301999999999880e-02
3.460000000000000000e+02 1.994301999999999880e-02
3.470000000000000000e+02 1.994301999999999880e-02
3.480000000000000000e+02 2.068326870249153834e-02
3.490000000000000000e+02 2.262643369131309146e-02
3.500000000000000000e+02 2.456959868013464110e-02
3.510000000000000000e+02 2.736849696117994030e-02
3.520000000000000000e+02 3.230677339945639548e-02
3.530000000000000000e+02 3.724504983773284372e-02
3.540000000000000000e+02 4.218332627600929891e-02
3.550000000000000000e+02 4.278026500000000482e-02
3.560000000000000000e+02 4.316013227986728595e-02
3.570000000000000000e+02 4.353999955973456709e-02
3.580000000000000000e+02 4.838783453980101401e-02
3.590000000000000000e+02 5.598516034514935263e-02
3.600000000000000000e+02 6.358248615049769126e-02
3.610000000000000000e+02 6.911771196624397207e-02
3.620000000000000000e+02 6.949757954611154864e-02
3.630000000000000000e+02 6.987744712597912522e-02
3.640000000000000000e+02 7.025731470584670180e-02
3.650000000000000000e+02 6.665762257142854308e-02
3.660000000000000000e+02 6.285894827275423369e-02
3.670000000000000000e+02 5.906027397407991736e-02
3.680000000000000000e+02 5.814227053394194211e-02
3.690000000000000000e+02 5.899696972454355343e-02
3.700000000000000000e+02 5.985166891514517168e-02
3.710000000000000000e+02 6.066671325141265170e-02
3.720000000000000000e+02 6.138261836993372939e-02
3.730000000000000000e+02 6.209852348845480707e-02
3.740000000000000000e+02 6.318456148821897933e-02
3.750000000000000000e+02 6.584362537009123828e-02
3.760000000000000000e+02 6.850268925196351111e-02
3.770000000000000000e+02 7.116175313383577006e-02
3.780000000000000000e+02 7.585582119065628626e-02
3.790000000000000000e+02 8.088906452389962864e-02
3.800000000000000000e+02 8.592230785714298491e-02
3.810000000000000000e+02 8.976168119689624525e-02
3.820000000000000000e+02 9.251572025093526830e-02
3.830000000000000000e+02 9.526975930497427747e-02
3.840000000000000000e+02 9.762583362205475013e-02
3.850000000000000000e+02 9.829059959252281486e-02
3.860000000000000000e+02 9.895536556299087960e-02
3.870000000000000000e+02 9.962013153345894434e-02
3.880000000000000000e+02 9.588930509831301852e-02
3.890000000000000000e+02 9.142586283487073862e-02
3.900000000000000000e+02 8.696242057142845872e-02
3.910000000000000000e+02 8.463799556298955140e-02
3.920000000000000000e+02 8.425812798312197482e-02
3.930000000000000000e+02 8.387826040325439825e-02
3.940000000000000000e+02 8.121358061578448639e-02
3.950000000000000000e+02 6.883868884648706998e-02
3.960000000000000000e+02 5.646379707718965357e-02
3.970000000000000000e+02 4.505041920708961062e-02
3.980000000000000000e+02 4.277122146548506532e-02
3.990000000000000000e+02 4.049202372388052695e-02
4.000000000000000000e+02 3.821282598227598165e-02
4.010000000000000000e+02 3.651246502073599715e-02
4.020000000000000000e+02 3.499299530126630253e-02
4.030000000000000000e+02 3.347352558179660098e-02
4.040000000000000000e+02 3.158775633131438026e-02
4.050000000000000000e+02 2.921358485714289563e-02
4.060000000000000000e+02 2.683941338297141446e-02
4.070000000000000000e+02 2.469135800000000006e-02
4.080000000000000000e+02 2.469135800000000006e-02
4.090000000000000000e+02 2.469135800000000006e-02
4.100000000000000000e+02 2.469135800000000006e-02
4.110000000000000000e+02 2.534255526690728025e-02
4.120000000000000000e+02 2.619725702160902170e-02
4.130000000000000000e+02 2.705195877631076662e-02
4.140000000000000000e+02 2.766246075795675274e-02
4.150000000000000000e+02 2.794736114285713974e-02
4.160000000000000000e+02 2.823226152775752326e-02
4.170000000000000000e+02 2.850950874685000136e-02
4.180000000000000000e+02 2.871405249789999933e-02
4.190000000000000000e+02 2.891859624895000078e-02
4.200000000000000000e+02 2.912313999999999875e-02
4.210000000000000000e+02 2.921810689496689636e-02
4.220000000000000000e+02 2.931307378993379051e-02
4.230000000000000000e+02 2.940804068490068812e-02
4.240000000000000000e+02 2.880658230066839368e-02
4.250000000000000000e+02 2.785691650000000213e-02
4.260000000000000000e+02 2.690725069933160712e-02
4.270000000000000000e+02 2.649572410569609945e-02
4.280000000000000000e+02 2.716049207046406649e-02
4.290000000000000000e+02 2.782526003523203353e-02
4.300000000000000000e+02 2.849002800000000057e-02
4.310000000000000000e+02 2.934472975470175937e-02
4.320000000000000000e+02 3.019943150940351817e-02
4.330000000000000000e+02 3.105413326410527697e-02
4.340000000000000000e+02 3.127571961006678225e-02
4.350000000000000000e+02 3.118075300000000202e-02
4.360000000000000000e+02 3.108578638993322180e-02
4.370000000000000000e+02 3.004116063191766134e-02
4.380000000000000000e+02 2.709718808794510728e-02
4.390000000000000000e+02 2.415321554397255321e-02
4.400000000000000000e+02 2.120924299999999915e-02
4.410000000000000000e+02 2.080015582097672483e-02
4.420000000000000000e+02 2.039106864195344704e-02
4.430000000000000000e+02 1.998198146293017272e-02
4.440000000000000000e+02 2.063039771169371955e-02
4.450000000000000000e+02 2.139013257142858421e-02
4.460000000000000000e+02 2.214986743116344539e-02
4.470000000000000000e+02 2.247546699999999897e-02
4.480000000000000000e+02 2.247546699999999897e-02
4.490000000000000000e+02 2.247546699999999897e-02
4.500000000000000000e+02 2.249807854985689734e-02
4.510000000000000000e+02 2.259304515992367757e-02
4.520000000000000000e+02 2.268801176999046126e-02
4.530000000000000000e+02 2.278297838005724149e-02
4.540000000000000000e+02 2.279202300000000153e-02
4.550000000000000000e+02 2.279202300000000153e-02
4.560000000000000000e+02 2.279202300000000153e-02
4.570000000000000000e+02 2.262922220162719850e-02
4.580000000000000000e+02 2.234432151672651953e-02
4.590000000000000000e+02 2.205942083182583710e-02
4.600000000000000000e+02 2.224936275456445081e-02
4.610000000000000000e+02 2.395876113576770813e-02
4.620000000000000000e+02 2.566815951697096199e-02
4.630000000000000000e+02 2.737755789817421931e-02
4.640000000000000000e+02 2.846567572869310170e-02
4.650000000000000000e+02 2.948839416086638035e-02
4.660000000000000000e+02 3.051111259303965553e-02
4.670000000000000000e+02 3.185908352649154118e-02
4.680000000000000000e+02 3.328358635099434859e-02
4.690000000000000000e+02 3.470808917549714906e-02
4.700000000000000000e+02 3.341925585714296265e-02
4.710000000000000000e+02 2.914574708363417560e-02
4.720000000000000000e+02 2.487223831012538855e-02
4.730000000000000000e+02 2.101930606691788245e-02
4.740000000000000000e+02 1.968977412598175297e-02
4.750000000000000000e+02 1.836024218504562003e-02
4.760000000000000000e+02 1.703071024410948708e-02
4.770000000000000000e+02 1.324109284399740440e-02
4.780000000000000000e+02 8.872617505522125206e-03
4.790000000000000000e+02 4.504142167046847750e-03
4.800000000000000000e+02 2.057613401702506565e-03
4.810000000000000000e+02 1.725229902894253719e-03
4.820000000000000000e+02 1.392846404086000656e-03
4.830000000000000000e+02 1.060462905277747810e-03
4.840000000000000000e+02 7.280794064694949639e-04
4.850000000000000000e+02 3.956959076612419010e-04
4.860000000000000000e+02 6.331240885298905496e-05
4.870000000000000000e+02 7.451222515470731821e-04
4.880000000000000000e+02 1.665571717337979187e-03
4.890000000000000000e+02 2.586021183128885299e-03
4.900000000000000000e+02 4.002175248376404690e-03
4.910000000000000000e+02 5.616606989512912262e-03
4.920000000000000000e+02 7.231038730649419835e-03
4.930000000000000000e+02 8.085742202592007336e-03
4.940000000000000000e+02 7.705874772724576743e-03
4.950000000000000000e+02 7.326007342857146151e-03
4.960000000000000000e+02 6.914483661078866042e-03
4.970000000000000000e+02 5.869848236443438172e-03
4.980000000000000000e+02 4.825212811808010302e-03
4.990000000000000000e+02 3.780577387172582432e-03
5.000000000000000000e+02 5.381457425897150093e-03
5.010000000000000000e+02 8.040521427769129273e-03
5.020000000000000000e+02 1.069958542964110845e-02
5.030000000000000000e+02 1.227332372272472473e-02
5.040000000000000000e+02 1.208338993279093471e-02
5.050000000000000000e+02 1.189345614285714468e-02
5.060000000000000000e+02 1.154524110051211722e-02
5.070000000000000000e+02 8.031467486738493727e-03
5.080000000000000000e+02 4.517693872964868504e-03
5.090000000000000000e+02 1.003920259191243280e-03
5.100000000000000000e+02 0.000000000000000000e+00
5.110000000000000000e+02 0.000000000000000000e+00
5.120000000000000000e+02 0.000000000000000000e+00
5.130000000000000000e+02 0.000000000000000000e+00
5.140000000000000000e+02 0.000000000000000000e+00
5.150000000000000000e+02 0.000000000000000000e+00
5.160000000000000000e+02 8.139894211199943876e-05
5.170000000000000000e+02 3.662995130125663444e-04
5.180000000000000000e+02 6.512000839131332772e-04
5.190000000000000000e+02 9.361006548137002642e-04
5.200000000000000000e+02 3.120336442857068755e-03
5.210000000000000000e+02 5.399540986061658089e-03
5.220000000000000000e+02 7.678745529266246990e-03
5.230000000000000000e+02 8.547008499999999773e-03
5.240000000000000000e+02 8.547008499999999773e-03
5.250000000000000000e+02 8.547008499999999773e-03
5.260000000000000000e+02 7.787285047430762136e-03
5.270000000000000000e+02 5.128213077358828934e-03
5.280000000000000000e+02 2.469141107286895731e-03
5.290000000000000000e+02 -1.899308627850374714e-04
5.300000000000000000e+02 -4.522226714286640319e-05
5.310000000000000000e+02 2.396783007577072094e-04
5.320000000000000000e+02 5.245788686582808762e-04
5.330000000000000000e+02 6.919007976760857331e-04
5.340000000000000000e+02 7.868673717429370109e-04
5.350000000000000000e+02 8.818339458097882886e-04
5.360000000000000000e+02 1.008107983612331181e-03
5.370000000000000000e+02 1.212652324420606092e-03
5.380000000000000000e+02 1.417196665228881002e-03
5.390000000000000000e+02 1.637047096799000220e-03
5.400000000000000000e+02 1.921946806999578171e-03
5.410000000000000000e+02 2.206846517200156121e-03
5.420000000000000000e+02 2.491746227400733638e-03
5.430000000000000000e+02 1.799847971403452287e-03
5.440000000000000000e+02 9.451462557017191370e-04
5.450000000000000000e+02 9.044453999998598726e-05
5.460000000000000000e+02 -1.175775131325660901e-04
5.470000000000000000e+02 2.622899137348554881e-04
5.480000000000000000e+02 6.421573406022770391e-04
5.490000000000000000e+02 1.401898433134642248e-03
5.500000000000000000e+02 3.776062718806055644e-03
5.510000000000000000e+02 6.150227004477469041e-03
5.520000000000000000e+02 8.524391290148883304e-03
5.530000000000000000e+02 9.514763434816215018e-03
5.540000000000000000e+02 1.027449817455097086e-02
5.550000000000000000e+02 1.103423291428572497e-02
5.560000000000000000e+02 1.104779893951782742e-02
5.570000000000000000e+02 1.038303106474996150e-02
5.580000000000000000e+02 9.718263189982095582e-03
5.590000000000000000e+02 9.180120300000000483e-03
5.600000000000000000e+02 9.180120300000000483e-03
5.610000000000000000e+02 9.180120300000000483e-03
5.620000000000000000e+02 9.324834153368677728e-03
5.630000000000000000e+02 1.084429922443852501e-02
5.640000000000000000e+02 1.236376429550837402e-02
5.650000000000000000e+02 1.388322936657822131e-02
5.660000000000000000e+02 1.287026434890937814e-02
5.670000000000000000e+02 1.106589415453914683e-02
5.680000000000000000e+02 9.261523960168917269e-03
5.690000000000000000e+02 8.026952966262851374e-03
5.700000000000000000e+02 7.552118671428563815e-03
5.710000000000000000e+02 7.077284376594275388e-03
5.720000000000000000e+02 6.638628682914435655e-03
5.730000000000000000e+02 6.543662102847596328e-03
5.740000000000000000e+02 6.448695522780757000e-03
5.750000000000000000e+02 6.353728942713917673e-03
5.760000000000000000e+02 5.679920178806792050e-03
5.770000000000000000e+02 4.825218484105079850e-03
5.780000000000000000e+02 3.970516789403368517e-03
5.790000000000000000e+02 2.993715250602246077e-03
5.800000000000000000e+02 1.854112969999981587e-03
5.810000000000000000e+02 7.145106893977166626e-04
5.820000000000000000e+02 -3.165558699999999870e-04
5.830000000000000000e+02 -3.165558699999999870e-04
5.840000000000000000e+02 -3.165558699999999870e-04
5.850000000000000000e+02 -3.165558699999999870e-04
5.860000000000000000e+02 -1.266221580662906963e-04
5.870000000000000000e+02 6.331155386741859443e-05
5.880000000000000000e+02 2.532452658011279394e-04
5.890000000000000000e+02 3.165558699999999870e-04
5.900000000000000000e+02 3.165558699999999870e-04
5.910000000000000000e+02 3.165558699999999870e-04
5.920000000000000000e+02 2.532452658011278852e-04
5.930000000000000000e+02 6.331155386741859443e-05
5.940000000000000000e+02 -1.266221580662906963e-04
5.950000000000000000e+02 -3.165558699999999870e-04
5.960000000000000000e+02 5.381458457017038351e-04
5.970000000000000000e+02 1.392847561403407711e-03
5.980000000000000000e+02 2.247549277105111588e-03
5.990000000000000000e+02 2.912315179598824917e-03
6.000000000000000000e+02 3.482114599999999900e-03
6.010000000000000000e+02 4.051914020401174883e-03
6.020000000000000000e+02 4.210195084303956087e-03
6.030000000000000000e+02 3.545427089535970952e-03
6.040000000000000000e+02 2.880659094767985384e-03
6.050000000000000000e+02 2.215891099999999815e-03
6.060000000000000000e+02 2.215891099999999815e-03
6.070000000000000000e+02 2.215891099999999815e-03
6.080000000000000000e+02 2.215891099999999815e-03
6.090000000000000000e+02 1.958124464900565416e-03
6.100000000000000000e+02 1.673223900000004585e-03
6.110000000000000000e+02 1.388323335099443754e-03
6.120000000000000000e+02 1.429024229801122885e-03
6.130000000000000000e+02 1.713924794701693474e-03
6.140000000000000000e+02 1.998825359602263846e-03
6.150000000000000000e+02 2.328948806426601233e-03
6.160000000000000000e+02 2.803781676760857405e-03
6.170000000000000000e+02 3.278614547095114011e-03
6.180000000000000000e+02 3.753447417429370183e-03
6.190000000000000000e+02 3.454981644153145084e-03
6.200000000000000000e+02 3.075114214285720564e-03
6.210000000000000000e+02 2.695246784418296043e-03
6.220000000000000000e+02 2.586713898505096313e-03
6.230000000000000000e+02 2.681680733471933017e-03
6.240000000000000000e+02 2.776647568438770156e-03
6.250000000000000000e+02 2.894225885427835054e-03
6.260000000000000000e+02 3.084159045561513275e-03
6.270000000000000000e+02 3.274092205695191930e-03
6.280000000000000000e+02 3.464025365828870585e-03
6.290000000000000000e+02 7.275904549181378897e-03
6.300000000000000000e+02 1.146904963647672401e-02
6.310000000000000000e+02 1.566219472377207086e-02
6.320000000000000000e+02 2.422553952504261435e-02
6.330000000000000000e+02 3.381719201669497465e-02
6.340000000000000000e+02 4.340884450834732455e-02
6.350000000000000000e+02 5.358838657142839246e-02
6.360000000000000000e+02 6.441460839765043855e-02
6.370000000000000000e+02 7.524083022387248465e-02
6.380000000000000000e+02 8.545653564978096528e-02
6.390000000000000000e+02 9.200922814439593811e-02
6.400000000000000000e+02 9.856192063901089706e-02
6.410000000000000000e+02 1.051146131336258699e-01
6.420000000000000000e+02 1.042870762351702091e-01
6.430000000000000000e+02 1.017229718710658815e-01
6.440000000000000000e+02 9.915886750696155383e-02
6.450000000000000000e+02 9.333875957142871715e-02
6.460000000000000000e+02 8.393704086970982248e-02
6.470000000000000000e+02 7.453532216799094168e-02
6.480000000000000000e+02 6.643603225311547900e-02
6.490000000000000000e+02 6.615113272291453517e-02
6.500000000000000000e+02 6.586623319271360522e-02
6.510000000000000000e+02 6.558133366251266139e-02
6.520000000000000000e+02 6.801080683849024255e-02
6.530000000000000000e+02 7.107897172445992728e-02
6.540000000000000000e+02 7.414713661042962589e-02
6.550000000000000000e+02 7.536291028523643687e-02
6.560000000000000000e+02 7.583774303557092034e-02
6.570000000000000000e+02 7.631257578590541768e-02
6.580000000000000000e+02 8.286525031289418419e-02
6.590000000000000000e+02 9.929451744216163944e-02
6.600000000000000000e+02 1.157237845714291224e-01
6.610000000000000000e+02 1.320716498627206303e-01
6.620000000000000000e+02 1.467915125825831335e-01
6.630000000000000000e+02 1.615113753024456644e-01
6.640000000000000000e+02 1.762312380223081676e-01
6.650000000000000000e+02 1.952245905791788749e-01
6.660000000000000000e+02 2.159273031737535542e-01
6.670000000000000000e+02 2.366300157683282335e-01
6.680000000000000000e+02 2.574051070717269241e-01
6.690000000000000000e+02 2.782978149644352306e-01
6.700000000000000000e+02 2.991905228571435371e-01
6.710000000000000000e+02 3.197711906257113545e-01
6.720000000000000000e+02 3.341111869657075184e-01
6.730000000000000000e+02 3.484511833057036267e-01
6.740000000000000000e+02 3.627911796456997906e-01
6.750000000000000000e+02 3.692624373537953253e-01
6.760000000000000000e+02 3.725862657061385641e-01
6.770000000000000000e+02 3.759100940584818584e-01
6.780000000000000000e+02 3.730976535888657075e-01
6.790000000000000000e+02 3.603136756097751747e-01
6.800000000000000000e+02 3.475296976306846419e-01
6.810000000000000000e+02 3.275450376612580317e-01
6.820000000000000000e+02 2.895582946745155484e-01
6.830000000000000000e+02 2.515715516877731206e-01
6.840000000000000000e+02 2.135848087010306373e-01
6.850000000000000000e+02 2.107809885714286013e-01
6.860000000000000000e+02 2.097363515267915424e-01
6.870000000000000000e+02 2.086917144821544556e-01
6.880000000000000000e+02 1.935377076153044773e-01
6.890000000000000000e+02 1.697010992885212843e-01
6.900000000000000000e+02 1.458644909617380914e-01
6.910000000000000000e+02 1.286211758960859042e-01
6.920000000000000000e+02 1.278614401363501463e-01
6.930000000000000000e+02 1.271017043766144161e-01
6.940000000000000000e+02 1.263419686168786582e-01
6.950000000000000000e+02 1.146384457142861080e-01
6.960000000000000000e+02 1.023877219635621200e-01
6.970000000000000000e+02 9.013699821283811808e-02
6.980000000000000000e+02 8.170758555387382105e-02
6.990000000000000000e+02 7.562972520959454492e-02
7.000000000000000000e+02 6.955186486531528267e-02
7.010000000000000000e+02 6.424624403454995414e-02
7.020000000000000000e+02 6.087126253075219456e-02
7.030000000000000000e+02 5.749628102695443499e-02
7.040000000000000000e+02 5.463754137794526317e-02
7.050000000000000000e+02 5.397277540747720537e-02
7.060000000000000000e+02 5.330800943700914757e-02
7.070000000000000000e+02 5.264324346654108977e-02
7.080000000000000000e+02 4.685028260964577140e-02
7.090000000000000000e+02 4.020260266196568760e-02
7.100000000000000000e+02 3.355492271428560380e-02
7.110000000000000000e+02 2.715596565572554050e-02
7.120000000000000000e+02 2.098311988287985402e-02
7.130000000000000000e+02 1.481027411003416755e-02
7.140000000000000000e+02 9.252465792124478505e-03
7.150000000000000000e+02 6.308502080051922242e-03
7.160000000000000000e+02 3.364538367979365112e-03
7.170000000000000000e+02 4.205746559068079815e-04
7.180000000000000000e+02 4.069994674742559849e-04
7.190000000000000000e+02 8.818337623085604040e-04
7.200000000000000000e+02 1.356668057142864769e-03
7.210000000000000000e+02 1.831502336262845086e-03
7.220000000000000000e+02 2.306336601097103492e-03
7.230000000000000000e+02 2.781170865931361681e-03
7.240000000000000000e+02 3.730500130953276310e-03
7.250000000000000000e+02 6.696383325794396865e-03
7.260000000000000000e+02 9.662266520635518288e-03
7.270000000000000000e+02 1.237281285982827668e-02
7.280000000000000000e+02 1.265771269002861563e-02
7.290000000000000000e+02 1.294261252022895284e-02
7.300000000000000000e+02 1.322751235042929178e-02
7.310000000000000000e+02 1.727488565014856717e-02
7.320000000000000000e+02 2.249806277332579846e-02
7.330000000000000000e+02 2.772123989650302628e-02
7.340000000000000000e+02 3.046172022694421111e-02
7.350000000000000000e+02 2.989191885714284971e-02
7.360000000000000000e+02 2.932211748734148485e-02
7.370000000000000000e+02 2.848097782492038654e-02
7.380000000000000000e+02 2.506218136251333467e-02
7.390000000000000000e+02 2.164338490010627933e-02
7.400000000000000000e+02 1.822458843769922399e-02
7.410000000000000000e+02 1.523991555030859528e-02
7.420000000000000000e+02 1.239090984130282805e-02
7.430000000000000000e+02 9.541904132297062552e-03
7.440000000000000000e+02 7.059197941446781338e-03
7.450000000000000000e+02 5.064893957142825066e-03
7.460000000000000000e+02 3.070589972838867927e-03
7.470000000000000000e+02 1.324665715934137972e-03
7.480000000000000000e+02 1.938296710622758713e-03
7.490000000000000000e+02 2.551927705311379455e-03
7.500000000000000000e+02 3.165558699999999979e-03
7.510000000000000000e+02 2.690724435165741790e-03
7.520000000000000000e+02 2.215890170331483600e-03
7.530000000000000000e+02 1.741055905497225194e-03
7.540000000000000000e+02 1.772713489799412597e-03
7.550000000000000000e+02 2.057613199999999871e-03
7.560000000000000000e+02 2.342512910200587363e-03
7.570000000000000000e+02 2.975621231392086823e-03
7.580000000000000000e+02 4.305157220928057527e-03
7.590000000000000000e+02 5.634693210464028663e-03
7.600000000000000000e+02 6.964229199999999800e-03
7.610000000000000000e+02 7.249129764900561282e-03
7.620000000000000000e+02 7.534030329801121896e-03
7.630000000000000000e+02 7.818930894701682510e-03
7.640000000000000000e+02 7.597339970334272830e-03
7.650000000000000000e+02 7.122507099999999744e-03
7.660000000000000000e+02 6.647674229665727526e-03
7.670000000000000000e+02 6.046219684105048897e-03
7.680000000000000000e+02 5.191517989403365320e-03
7.690000000000000000e+02 4.336816294701682610e-03
7.700000000000000000e+02 3.482114599999999900e-03
7.710000000000000000e+02 3.993473783778965329e-03
7.720000000000000000e+02 4.504832967557931625e-03
7.730000000000000000e+02 5.016192151336897054e-03
7.740000000000000000e+02 7.212949382971378318e-03
7.750000000000000000e+02 9.587120857142819585e-03
7.760000000000000000e+02 1.196129233131425912e-02
7.770000000000000000e+02 1.373852771621468342e-02
7.780000000000000000e+02 1.506806364575064006e-02
7.790000000000000000e+02 1.639759957528659495e-02
7.800000000000000000e+02 1.664178061201367770e-02
7.810000000000000000e+02 1.341291715974060259e-02
7.820000000000000000e+02 1.018405370746752921e-02
7.830000000000000000e+02 6.955190255194454094e-03
7.840000000000000000e+02 5.101073467689131585e-03
7.850000000000000000e+02 3.391670054285741975e-03
7.860000000000000000e+02 1.682266640882352365e-03
7.870000000000000000e+02 7.868668867702936949e-04
7.880000000000000000e+02 5.019663158697170585e-04
7.890000000000000000e+02 2.170657449691405306e-04
7.900000000000000000e+02 2.713384911380516519e-04
7.910000000000000000e+02 1.410937361940302944e-03
7.920000000000000000e+02 2.550536232742553911e-03
7.930000000000000000e+02 3.690135103544805312e-03
7.940000000000000000e+02 6.111957029425862248e-03
7.950000000000000000e+02 8.668752786782326844e-03
7.960000000000000000e+02 1.122554854413879317e-02
7.970000000000000000e+02 1.432640445623748621e-02
7.980000000000000000e+02 1.755527768511067066e-02
7.990000000000000000e+02 2.078415091398385511e-02
8.000000000000000000e+02 2.577669257142845699e-02
8.010000000000000000e+02 3.270927320400923016e-02
8.020000000000000000e+02 3.964185383659001027e-02
8.030000000000000000e+02 4.624882526578766306e-02
8.040000000000000000e+02 5.090218705906404684e-02
8.050000000000000000e+02 5.555554885234042367e-02
8.060000000000000000e+02 6.020891064561680744e-02
8.070000000000000000e+02 6.363224285542389003e-02
8.080000000000000000e+02 6.676614918933017340e-02
8.090000000000000000e+02 6.990005552323645677e-02
8.100000000000000000e+02 7.271740599999995669e-02
8.110000000000000000e+02 7.518654436913838057e-02
8.120000000000000000e+02 7.765568273827679058e-02
8.130000000000000000e+02 7.989418232636938400e-02
8.140000000000000000e+02 8.074888151697098837e-02
8.150000000000000000e+02 8.160358070757260662e-02
8.160000000000000000e+02 8.245827989817422488e-02
8.170000000000000000e+02 8.369737062693566321e-02
8.180000000000000000e+02 8.502690865803512466e-02
8.190000000000000000e+02 8.635644668913457223e-02
8.200000000000000000e+02 8.856781825456448709e-02
8.210000000000000000e+02 9.113191582636934185e-02
8.220000000000000000e+02 9.369601339817418273e-02
8.230000000000000000e+02 9.492154172790874533e-02
8.240000000000000000e+02 9.397187307824006464e-02
8.250000000000000000e+02 9.302220442857139782e-02
8.260000000000000000e+02 9.206349113182606125e-02
8.270000000000000000e+02 9.092388869222364778e-02
8.280000000000000000e+02 8.978428625262122043e-02
8.290000000000000000e+02 8.864468381301880695e-02
8.300000000000000000e+02 8.648757895972207510e-02
8.310000000000000000e+02 8.392348168791663454e-02
8.320000000000000000e+02 8.135938441611119398e-02
8.330000000000000000e+02 7.977207999999999521e-02
8.340000000000000000e+02 7.977207999999999521e-02
8.350000000000000000e+02 7.977207999999999521e-02
8.360000000000000000e+02 7.955953087941464164e-02
8.370000000000000000e+02 7.509608861597244500e-02
8.380000000000000000e+02 7.063264635253024837e-02
8.390000000000000000e+02 6.616920408908805173e-02
8.400000000000000000e+02 6.467479866609374128e-02
8.410000000000000000e+02 6.436798303951873912e-02
8.420000000000000000e+02 6.406116741294375083e-02
8.430000000000000000e+02 5.894721624610441829e-02
8.440000000000000000e+02 5.087505769042158232e-02
8.450000000000000000e+02 4.280289913473873942e-02
8.460000000000000000e+02 3.595171776612580278e-02
8.470000000000000000e+02 3.215304346745155584e-02
8.480000000000000000e+02 2.835436916877730890e-02
8.490000000000000000e+02 2.455569487010306542e-02
8.500000000000000000e+02 2.392257942857144506e-02
8.510000000000000000e+02 2.344774525373725937e-02
8.520000000000000000e+02 2.297291107890307715e-02
8.530000000000000000e+02 2.026409354592836193e-02
8.540000000000000000e+02 1.618053090305367203e-02
8.550000000000000000e+02 1.209696826017898387e-02
8.560000000000000000e+02 9.261519248969046075e-03
8.570000000000000000e+02 9.546419843869637795e-03
8.580000000000000000e+02 9.831320438770229514e-03
8.590000000000000000e+02 1.011622103367081950e-02
8.600000000000000000e+02 8.501786342857198253e-03
8.610000000000000000e+02 6.792382893453715112e-03
8.620000000000000000e+02 5.082979444050230236e-03
8.630000000000000000e+02 4.490571261390377718e-03
8.640000000000000000e+02 4.585537841457217045e-03
8.650000000000000000e+02 4.680504421524056373e-03
8.660000000000000000e+02 4.982099543372538186e-03
8.670000000000000000e+02 5.800276867836306333e-03
8.680000000000000000e+02 6.618454192300074479e-03
8.690000000000000000e+02 7.244606631657740659e-03
8.700000000000000000e+02 7.054673471524062871e-03
8.710000000000000000e+02 6.864740311390384216e-03
8.720000000000000000e+02 6.674807151256705560e-03
8.730000000000000000e+02 5.101075364740588480e-03
8.740000000000000000e+02 3.296705092370279862e-03
8.750000000000000000e+02 1.492334819999971245e-03
8.760000000000000000e+02 6.828563303954321732e-04
8.770000000000000000e+02 7.778231893622897068e-04
8.780000000000000000e+02 8.727900483291473489e-04
8.790000000000000000e+02 1.383809198963512717e-03
8.800000000000000000e+02 3.663006904568087436e-03
8.810000000000000000e+02 5.942204610172661071e-03
8.820000000000000000e+02 8.221402315777236874e-03
8.830000000000000000e+02 9.279607433453912133e-03
8.840000000000000000e+02 1.013430903815553362e-02
8.850000000000000000e+02 1.098901064285715684e-02
8.860000000000000000e+02 1.204269076314078493e-02
8.870000000000000000e+02 1.327726009771010296e-02
8.880000000000000000e+02 1.451182943227942099e-02
8.890000000000000000e+02 1.543331501260000044e-02
8.900000000000000000e+02 1.502422751050000102e-02
8.910000000000000000e+02 1.461514000839999987e-02
8.920000000000000000e+02 1.417265706902987032e-02
8.930000000000000000e+02 1.341292448849503577e-02
8.940000000000000000e+02 1.265319190796020121e-02
8.950000000000000000e+02 1.189345932742536839e-02
8.960000000000000000e+02 8.963067636104793748e-03
8.970000000000000000e+02 5.354327166364250372e-03
8.980000000000000000e+02 1.745586696623706996e-03
8.990000000000000000e+02 -4.386557089565775065e-04
9.000000000000000000e+02 -7.235562828571475173e-04
9.010000000000000000e+02 -1.008456856757717528e-03
9.020000000000000000e+02 -1.230045034514935104e-03
9.030000000000000000e+02 -8.501787442475180426e-04
9.040000000000000000e+02 -4.703124539801009814e-04
9.050000000000000000e+02 -9.044616371268392012e-05
9.060000000000000000e+02 8.682629730194400472e-04
9.070000000000000000e+02 2.007865247621718439e-03
9.080000000000000000e+02 3.147467522223996398e-03
9.090000000000000000e+02 4.287069796826274357e-03
9.100000000000000000e+02 5.426672071428552749e-03
9.110000000000000000e+02 6.566274346030831141e-03
9.120000000000000000e+02 7.675263859707155169e-03
9.130000000000000000e+02 8.493438573138103673e-03
9.140000000000000000e+02 9.311613286569053044e-03
9.150000000000000000e+02 1.012978800000000068e-02
9.160000000000000000e+02 1.164925771946969876e-02
9.170000000000000000e+02 1.316872743893939685e-02
9.180000000000000000e+02 1.468819715840909493e-02
9.190000000000000000e+02 1.456156830066842461e-02
9.200000000000000000e+02 1.361190249999999838e-02
9.210000000000000000e+02 1.266223669933157388e-02
9.220000000000000000e+02 1.142767227311059647e-02
9.230000000000000000e+02 9.623302048740397380e-03
9.240000000000000000e+02 7.818931824370198291e-03
9.250000000000000000e+02 6.014561600000000070e-03
9.260000000000000000e+02 5.824627870066273125e-03
9.270000000000000000e+02 5.634694140132545312e-03
9.280000000000000000e+02 5.444760410198818366e-03
9.290000000000000000e+02 6.710988428595887276e-03
9.300000000000000000e+02 8.705286399999999716e-03
9.310000000000000000e+02 1.069958437140411216e-02
9.320000000000000000e+02 1.228236542079545225e-02
9.330000000000000000e+02 1.304210028053030129e-02
9.340000000000000000e+02 1.380183514026515033e-02
9.350000000000000000e+02 1.456156999999999938e-02
9.360000000000000000e+02 1.497065750209999879e-02
9.370000000000000000e+02 1.537974500419999994e-02
9.380000000000000000e+02 1.578883250629999763e-02
9.390000000000000000e+02 1.221906094575095532e-02
9.400000000000000000e+02 8.230452857142921824e-03
9.410000000000000000e+02 4.241844768534890064e-03
9.420000000000000000e+02 2.423913168703973296e-03
9.430000000000000000e+02 2.233979438770239412e-03
9.440000000000000000e+02 2.044045708836505527e-03
9.450000000000000000e+02 1.944558285427834673e-03
9.460000000000000000e+02 2.134491445561513545e-03
9.470000000000000000e+02 2.324424605695192200e-03
9.480000000000000000e+02 2.514357765828870855e-03
9.490000000000000000e+02 2.876135855846854907e-03
9.500000000000000000e+02 3.256003285714279428e-03
9.510000000000000000e+02 3.635870715581703948e-03
9.520000000000000000e+02 3.581602854550863801e-03
9.530000000000000000e+02 3.201735424683426270e-03
9.540000000000000000e+02 2.821867994815988739e-03
9.550000000000000000e+02 2.532447000000000170e-03
9.560000000000000000e+02 2.532447000000000170e-03
9.570000000000000000e+02 2.532447000000000170e-03
9.580000000000000000e+02 2.532447000000000170e-03
9.590000000000000000e+02 1.884726739606999973e-03
9.600000000000000000e+02 1.168823892008750108e-03
9.610000000000000000e+02 4.529210444104998096e-04
9.620000000000000000e+02 4.703110109131426264e-04
9.630000000000000000e+02 6.602447258468549952e-04
9.640000000000000000e+02 8.501784407805672555e-04
9.650000000000000000e+02 1.311445759999987481e-03
9.660000000000000000e+02 2.071180613734856495e-03
9.670000000000000000e+02 2.830915467469725510e-03
9.680000000000000000e+02 3.400713054801467270e-03
9.690000000000000000e+02 2.830913634400311803e-03
9.700000000000000000e+02 2.261114213999155902e-03
9.710000000000000000e+02 1.691314793598000434e-03
9.720000000000000000e+02 1.736534528770330554e-03
9.730000000000000000e+02 1.926468228704027695e-03
9.740000000000000000e+02 2.116401928637724836e-03
9.750000000000000000e+02 3.029891914285686490e-03
9.760000000000000000e+02 4.739295333689140695e-03
9.770000000000000000e+02 6.448698753092594466e-03
9.780000000000000000e+02 8.022432205026821389e-03
9.790000000000000000e+02 8.782164845561536010e-03
9.800000000000000000e+02 9.541897486096248895e-03
9.810000000000000000e+02 1.030163012663096352e-02
9.820000000000000000e+02 8.707725334595455002e-03
9.830000000000000000e+02 6.560009817493343311e-03
9.840000000000000000e+02 4.412294300391232486e-03
9.850000000000000000e+02 3.730836821524056643e-03
9.860000000000000000e+02 3.635870241457217315e-03
9.870000000000000000e+02 3.540903661390377988e-03
9.880000000000000000e+02 3.047983111204570061e-03
9.890000000000000000e+02 1.908380830602266756e-03
9.900000000000000000e+02 7.687785499999630172e-04
9.910000000000000000e+02 -3.120335483188534553e-04
9.920000000000000000e+02 -2.170666923519988100e-04
9.930000000000000000e+02 -1.220998363851441646e-04
9.940000000000000000e+02 -2.713298041828954635e-05
9.950000000000000000e+02 1.967176504373093805e-03
9.960000000000000000e+02 4.721207086311913180e-03
9.970000000000000000e+02 7.475237668250731687e-03
9.980000000000000000e+02 9.831313625457846483e-03
9.990000000000000000e+02 1.154070678849203335e-02
1.000000000000000000e+03 1.325009995152622022e-02
1.001000000000000000e+03 1.496401480424802179e-02
1.002000000000000000e+03 1.676840144811445749e-02
1.003000000000000000e+03 1.857278809198088798e-02
1.004000000000000000e+03 2.037717473584732542e-02
1.005000000000000000e+03 2.177454859814595411e-02
1.006000000000000000e+03 2.300912874394740737e-02
1.007000000000000000e+03 2.424370888974886409e-02
1.008000000000000000e+03 2.531963251096822423e-02
1.009000000000000000e+03 2.613779133240719255e-02
1.010000000000000000e+03 2.695595015384616086e-02
1.011000000000000000e+03 2.713337688017877433e-02
1.012000000000000000e+03 2.570886123502232751e-02
1.013000000000000000e+03 2.428434558986588068e-02
1.014000000000000000e+03 2.285982994470943386e-02
1.015000000000000000e+03 2.279202300000000153e-02
1.016000000000000000e+03 2.279202300000000153e-02
1.017000000000000000e+03 2.279202300000000153e-02
1.018000000000000000e+03 2.149875274199736577e-02
1.019000000000000000e+03 1.940946314910144133e-02
1.020000000000000000e+03 1.732017355620551688e-02
1.021000000000000000e+03 1.588205848645486695e-02
1.022000000000000000e+03 1.607199368580685198e-02
1.023000000000000000e+03 1.626192888515884047e-02
1.024000000000000000e+03 1.645186408451082896e-02
1.025000000000000000e+03 1.944557471428540879e-02
1.026000000000000000e+03 2.257941523747496182e-02
1.027000000000000000e+03 2.571325576066451485e-02
1.028000000000000000e+03 2.855322948030457331e-02
1.029000000000000000e+03 3.121232557126547499e-02
1.030000000000000000e+03 3.387142166222637668e-02
1.031000000000000000e+03 3.705646935364393518e-02
1.032000000000000000e+03 4.155648809233614127e-02
1.033000000000000000e+03 4.605650683102834736e-02
1.034000000000000000e+03 5.035054100326969567e-02
1.035000000000000000e+03 5.376927592857121130e-02
1.036000000000000000e+03 5.718801085387271999e-02
1.037000000000000000e+03 6.060674577917422867e-02
1.038000000000000000e+03 6.353718771892702399e-02
1.039000000000000000e+03 6.638621900923992458e-02
1.040000000000000000e+03 6.923525029955281129e-02
1.041000000000000000e+03 7.084067953640532656e-02
1.042000000000000000e+03 7.131551828479280875e-02
1.043000000000000000e+03 7.179035703318030481e-02
1.044000000000000000e+03 7.175865045902096728e-02
1.045000000000000000e+03 6.957445864285728698e-02
1.046000000000000000e+03 6.739026682669360668e-02
1.047000000000000000e+03 6.520607501052991251e-02
1.048000000000000000e+03 6.171947781396835281e-02
1.049000000000000000e+03 5.801573707656098450e-02
1.050000000000000000e+03 5.431199633915361619e-02
1.051000000000000000e+03 5.234929857087573107e-02
1.052000000000000000e+03 5.196942757216574393e-02
1.053000000000000000e+03 5.158955657345576373e-02
1.054000000000000000e+03 5.058068438109417087e-02
1.055000000000000000e+03 4.689896984615404135e-02
1.056000000000000000e+03 4.321725531121391184e-02
1.057000000000000000e+03 3.980467166063662160e-02
1.058000000000000000e+03 3.894996221354215388e-02
1.059000000000000000e+03 3.809525276644768615e-02
1.060000000000000000e+03 3.724054331935321843e-02
1.061000000000000000e+03 3.558991911613122727e-02
1.062000000000000000e+03 3.369056502259029640e-02
1.063000000000000000e+03 3.179121092904936552e-02
1.064000000000000000e+03 3.111293930725381879e-02
1.065000000000000000e+03 3.206258771428568272e-02
1.066000000000000000e+03 3.301223612131754664e-02
1.067000000000000000e+03 3.368161856052565017e-02
1.068000000000000000e+03 3.168729671730722425e-02
1.069000000000000000e+03 2.969297487408879832e-02
1.070000000000000000e+03 2.769865303087037239e-02
1.071000000000000000e+03 2.794736405622053055e-02
1.072000000000000000e+03 2.889704125299249679e-02
1.073000000000000000e+03 2.984671844976445956e-02
1.074000000000000000e+03 3.002304652060961906e-02
1.075000000000000000e+03 2.916836271428574143e-02
1.076000000000000000e+03 2.831367890796186379e-02
1.077000000000000000e+03 2.733589651641255697e-02
1.078000000000000000e+03 2.518816034427503667e-02
1.079000000000000000e+03 2.304042417213751984e-02
1.080000000000000000e+03 2.089268799999999954e-02
1.081000000000000000e+03 1.813862415936159933e-02
1.082000000000000000e+03 1.538456031872320086e-02
1.083000000000000000e+03 1.263049647808480239e-02
1.084000000000000000e+03 1.031967943546230164e-02
1.085000000000000000e+03 8.230452549999999617e-03
1.086000000000000000e+03 6.141225664537699330e-03
1.087000000000000000e+03 4.273547025470243906e-03
1.088000000000000000e+03 2.849031350313496226e-03
1.089000000000000000e+03 1.424515675156748113e-03
1.090000000000000000e+03 0.000000000000000000e+00
1.091000000000000000e+03 0.000000000000000000e+00
1.092000000000000000e+03 0.000000000000000000e+00
1.093000000000000000e+03 0.000000000000000000e+00
1.094000000000000000e+03 0.000000000000000000e+00
1.095000000000000000e+03 0.000000000000000000e+00
1.096000000000000000e+03 0.000000000000000000e+00
1.097000000000000000e+03 0.000000000000000000e+00
1.098000000000000000e+03 0.000000000000000000e+00
1.099000000000000000e+03 0.000000000000000000e+00
1.100000000000000000e+03 0.000000000000000000e+00
1.101000000000000000e+03 4.500018738692201752e-03
1.102000000000000000e+03 9.000037477384403503e-03
1.103000000000000000e+03 1.350005621607660439e-02
1.104000000000000000e+03 1.985722853722943562e-02
1.105000000000000000e+03 2.640980428571449920e-02
1.106000000000000000e+03 3.296238003419955931e-02
1.107000000000000000e+03 3.918948050364526314e-02
1.108000000000000000e+03 4.517244603330054786e-02
1.109000000000000000e+03 5.115541156295582564e-02
1.110000000000000000e+03 5.643741099262001432e-02
1.111000000000000000e+03 5.947637778228791194e-02
1.112000000000000000e+03 6.251534457195580263e-02
1.113000000000000000e+03 6.555431136162369332e-02
1.114000000000000000e+03 6.275034963958711631e-02
1.115000000000000000e+03 5.933161471428560763e-02
1.116000000000000000e+03 5.591287978898409200e-02
1.117000000000000000e+03 5.048629777469748614e-02
1.118000000000000000e+03 4.355365474826723704e-02
1.119000000000000000e+03 3.662101172183698794e-02
1.120000000000000000e+03 2.991448683595817823e-02
1.121000000000000000e+03 2.393152100629989537e-02
1.122000000000000000e+03 1.794855517664161251e-02
1.123000000000000000e+03 1.196558934698332965e-02
1.124000000000000000e+03 7.972261927542908383e-03
1.125000000000000000e+03 4.188277541538261949e-03
1.126000000000000000e+03 4.042931555336155142e-04
1.127000000000000000e+03 -3.165558699999999870e-04
1.128000000000000000e+03 -3.165558699999999870e-04
1.129000000000000000e+03 -3.165558699999999870e-04
1.130000000000000000e+03 -3.165558699999999870e-04
1.131000000000000000e+03 -3.165558699999999870e-04
1.132000000000000000e+03 -3.165558699999999870e-04
1.133000000000000000e+03 -3.029853912626695347e-04
1.134000000000000000e+03 -2.080205295599030940e-04
1.135000000000000000e+03 -1.130556678571366803e-04
1.136000000000000000e+03 -1.809080615437026664e-05
1.137000000000000000e+03 0.000000000000000000e+00
1.138000000000000000e+03 0.000000000000000000e+00
1.139000000000000000e+03 0.000000000000000000e+00
1.140000000000000000e+03 0.000000000000000000e+00
1.141000000000000000e+03 0.000000000000000000e+00
1.142000000000000000e+03 0.000000000000000000e+00
1.143000000000000000e+03 0.000000000000000000e+00
1.144000000000000000e+03 0.000000000000000000e+00
1.145000000000000000e+03 0.000000000000000000e+00
1.146000000000000000e+03 0.000000000000000000e+00
1.147000000000000000e+03 0.000000000000000000e+00
1.148000000000000000e+03 0.000000000000000000e+00
1.149000000000000000e+03 0.000000000000000000e+00
1.150000000000000000e+03 0.000000000000000000e+00
1.151000000000000000e+03 0.000000000000000000e+00
1.152000000000000000e+03 0.000000000000000000e+00
1.153000000000000000e+03 0.000000000000000000e+00
1.154000000000000000e+03 0.000000000000000000e+00
1.155000000000000000e+03 0.000000000000000000e+00
1.156000000000000000e+03 0.000000000000000000e+00
1.157000000000000000e+03 0.000000000000000000e+00
1.158000000000000000e+03 0.000000000000000000e+00
1.159000000000000000e+03 0.000000000000000000e+00
1.160000000000000000e+03 0.000000000000000000e+00
1.161000000000000000e+03 0.000000000000000000e+00
1.162000000000000000e+03 0.000000000000000000e+00
1.163000000000000000e+03 0.000000000000000000e+00
1.164000000000000000e+03 0.000000000000000000e+00
1.165000000000000000e+03 0.000000000000000000e+00
1.166000000000000000e+03 0.000000000000000000e+00
1.167000000000000000e+03 0.000000000000000000e+00
1.168000000000000000e+03 0.000000000000000000e+00
1.169000000000000000e+03 0.000000000000000000e+00
1.170000000000000000e+03 1.424544156898752698e-03
1.171000000000000000e+03 3.418866090118079671e-03
1.172000000000000000e+03 5.413188023337406861e-03
1.173000000000000000e+03 7.777652942264266095e-03
1.174000000000000000e+03 1.074347877497820736e-02
1.175000000000000000e+03 1.370930460769215209e-02
1.176000000000000000e+03 1.694021721513178091e-02
1.177000000000000000e+03 2.083389315189114119e-02
1.178000000000000000e+03 2.472756908865049799e-02
1.179000000000000000e+03 2.862124502540985826e-02
1.180000000000000000e+03 3.558992428571359362e-02
1.181000000000000000e+03 4.271228913841657038e-02
1.182000000000000000e+03 4.983465399111955407e-02
1.183000000000000000e+03 5.519360055305515961e-02
1.184000000000000000e+03 5.946714748852450355e-02
1.185000000000000000e+03 6.374069442399385443e-02
1.186000000000000000e+03 6.608784981897843080e-02
1.187000000000000000e+03 6.361868922737251575e-02
1.188000000000000000e+03 6.114952863576660763e-02
1.189000000000000000e+03 5.868036804416069258e-02
1.190000000000000000e+03 5.539727742857174925e-02
1.191000000000000000e+03 5.207350740397222871e-02
1.192000000000000000e+03 4.874973737937270124e-02
1.193000000000000000e+03 4.489684029829334178e-02
1.194000000000000000e+03 4.071826081249849821e-02
1.195000000000000000e+03 3.653968132670365465e-02
1.196000000000000000e+03 3.130502511266226168e-02
1.197000000000000000e+03 2.342999225533472923e-02
1.198000000000000000e+03 1.555495939800720026e-02
1.199000000000000000e+03 9.035393848479084805e-03
1.200000000000000000e+03 8.275674942857191851e-03
1.201000000000000000e+03 7.515956037235301500e-03
1.202000000000000000e+03 6.756237131613409413e-03
1.203000000000000000e+03 8.601197049428365576e-03
1.204000000000000000e+03 1.088042205167838276e-02
1.205000000000000000e+03 1.315964705392839995e-02
1.206000000000000000e+03 1.429475810728106713e-02
1.207000000000000000e+03 1.438972585695856392e-02
1.208000000000000000e+03 1.448469360663605897e-02
1.209000000000000000e+03 1.497765854097902680e-02
1.210000000000000000e+03 1.716185035714271404e-02
1.211000000000000000e+03 1.934604217330640474e-02
1.212000000000000000e+03 2.153023398947009198e-02
1.213000000000000000e+03 2.355168825182240785e-02
1.214000000000000000e+03 2.554601009504083378e-02
1.215000000000000000e+03 2.754033193825926318e-02
1.216000000000000000e+03 2.814181940617410324e-02
1.217000000000000000e+03 2.747704545843462909e-02
1.218000000000000000e+03 2.681227151069515147e-02
1.219000000000000000e+03 2.642999625548406520e-02
1.220000000000000000e+03 2.724815507692303351e-02
1.221000000000000000e+03 2.806631389836200183e-02
1.222000000000000000e+03 2.881562492976929429e-02
1.223000000000000000e+03 2.891059267944679281e-02
1.224000000000000000e+03 2.900556042912428786e-02
1.225000000000000000e+03 2.910052817880178291e-02
1.226000000000000000e+03 2.991905498469981176e-02
1.227000000000000000e+03 3.096369993114927305e-02
1.228000000000000000e+03 3.200834487759873781e-02
1.229000000000000000e+03 3.232034143349135635e-02
1.230000000000000000e+03 3.165558742857144808e-02
1.231000000000000000e+03 3.099083342365154328e-02
1.232000000000000000e+03 3.019950453196536613e-02
1.233000000000000000e+03 2.820518238874393860e-02
1.234000000000000000e+03 2.621086024552251106e-02
1.235000000000000000e+03 2.421653810230108353e-02
1.236000000000000000e+03 2.366933430009300274e-02
1.237000000000000000e+03 2.357436685041850583e-02
1.238000000000000000e+03 2.347939940074401238e-02
1.239000000000000000e+03 2.285530773840528315e-02
1.240000000000000000e+03 2.152579942857147169e-02
1.241000000000000000e+03 2.019629111873766369e-02
1.242000000000000000e+03 1.890572435538901211e-02
1.243000000000000000e+03 1.798526590359267319e-02
1.244000000000000000e+03 1.706480745179633773e-02
1.245000000000000000e+03 1.614434899999999881e-02
1.246000000000000000e+03 1.405505949710497519e-02
1.247000000000000000e+03 1.196576999420995158e-02
1.248000000000000000e+03 9.876480491314929694e-03
1.249000000000000000e+03 9.496685736488269178e-03
1.250000000000000000e+03 9.971510150000001405e-03
1.251000000000000000e+03 1.044633456351173190e-02
1.252000000000000000e+03 1.145926022131222959e-02
1.253000000000000000e+03 1.354854981420815403e-02
1.254000000000000000e+03 1.563783940710407674e-02
1.255000000000000000e+03 1.772712900000000119e-02
1.256000000000000000e+03 1.706235505226052357e-02
1.257000000000000000e+03 1.639758110452104942e-02
1.258000000000000000e+03 1.573280715678157179e-02
1.259000000000000000e+03 1.418166339475611555e-02
1.260000000000000000e+03 1.218740119999999968e-02
1.261000000000000000e+03 1.019313900524388555e-02
1.262000000000000000e+03 7.945634994908627735e-03
1.263000000000000000e+03 5.191571373272418910e-03
1.264000000000000000e+03 2.437507751636209218e-03
1.265000000000000000e+03 -3.165558699999999870e-04
1.266000000000000000e+03 -2.142827147919351336e-04
1.267000000000000000e+03 -1.120095595838702801e-04
1.268000000000000000e+03 -9.736404375805453749e-06
1.269000000000000000e+03 4.296210479150547215e-04
1.270000000000000000e+03 9.044453714285868124e-04
1.271000000000000000e+03 1.379269694942118849e-03
1.272000000000000000e+03 1.582779400000000006e-03
1.273000000000000000e+03 1.582779400000000006e-03
1.274000000000000000e+03 1.582779400000000006e-03
1.275000000000000000e+03 1.650614835022358885e-03
1.276000000000000000e+03 1.935517964053648640e-03
1.277000000000000000e+03 2.220421093084938395e-03
1.278000000000000000e+03 2.505324222116227934e-03
1.279000000000000000e+03 3.305764853674950272e-03
1.280000000000000000e+03 4.160448600000027711e-03
1.281000000000000000e+03 5.015132346325106016e-03
1.282000000000000000e+03 7.877619125377420886e-03
1.283000000000000000e+03 1.224613387052485985e-02
1.284000000000000000e+03 1.661464861567230056e-02
1.285000000000000000e+03 2.014652631935321889e-02
1.286000000000000000e+03 2.100123576644769008e-02
1.287000000000000000e+03 2.185594521354215780e-02
1.288000000000000000e+03 2.271065466063662552e-02
1.289000000000000000e+03 2.492029950566997457e-02
1.290000000000000000e+03 2.727250607692319889e-02
1.291000000000000000e+03 2.962471264817642669e-02
1.292000000000000000e+03 3.168721153208545888e-02
1.293000000000000000e+03 3.368153337530388480e-02
1.294000000000000000e+03 3.567585521852231073e-02
1.295000000000000000e+03 3.884599133546362548e-02
1.296000000000000000e+03 4.330947377028796647e-02
1.297000000000000000e+03 4.777295620511230051e-02
1.298000000000000000e+03 5.156213062145639098e-02
1.299000000000000000e+03 5.130687254907294326e-02
1.300000000000000000e+03 5.105161447668949554e-02
1.301000000000000000e+03 5.079635640430604782e-02
1.302000000000000000e+03 5.054109833192260010e-02
1.303000000000000000e+03 5.028584025953915237e-02
1.304000000000000000e+03 5.003058218715570465e-02
1.305000000000000000e+03 4.977532411477225693e-02
1.306000000000000000e+03 4.952006604238880921e-02
1.307000000000000000e+03 4.926480797000536149e-02
1.308000000000000000e+03 4.900954989762191377e-02
1.309000000000000000e+03 4.875429182523846605e-02
1.310000000000000000e+03 4.849903375285501833e-02
1.311000000000000000e+03 4.824377568047157061e-02
1.312000000000000000e+03 4.798851760808812289e-02
1.313000000000000000e+03 4.773325953570467517e-02
1.314000000000000000e+03 4.747800146332122745e-02
1.315000000000000000e+03 4.722274339093777973e-02
1.316000000000000000e+03 4.696748531855433895e-02
1.317000000000000000e+03 4.671222724617088429e-02
1.318000000000000000e+03 4.645696917378744351e-02
1.319000000000000000e+03 4.620171110140399579e-02
1.320000000000000000e+03 4.594645302902054806e-02
1.321000000000000000e+03 4.569119495663710034e-02
1.322000000000000000e+03 4.543593688425365262e-02
1.323000000000000000e+03 4.518067881187020490e-02
1.324000000000000000e+03 4.492542073948675718e-02
1.325000000000000000e+03 4.467016266710330946e-02
1.326000000000000000e+03 4.441490459471986174e-02
1.327000000000000000e+03 4.415964652233641402e-02
1.328000000000000000e+03 4.390438844995296630e-02
1.329000000000000000e+03 4.364913037756951858e-02
1.330000000000000000e+03 4.339387230518607086e-02
1.331000000000000000e+03 4.313861423280262314e-02
1.332000000000000000e+03 4.288335616041917542e-02
1.333000000000000000e+03 4.262809808803572770e-02
1.334000000000000000e+03 4.237284001565227998e-02
1.335000000000000000e+03 4.211758194326883226e-02
1.336000000000000000e+03 4.186232387088538454e-02
1.337000000000000000e+03 4.160706579850193682e-02
1.338000000000000000e+03 4.135180772611848909e-02
1.339000000000000000e+03 4.109654965373504137e-02
1.340000000000000000e+03 4.084129158135159365e-02
1.341000000000000000e+03 4.058603350896815287e-02
1.342000000000000000e+03 4.033077543658469821e-02
1.343000000000000000e+03 4.007551736420125743e-02
1.344000000000000000e+03 3.982025929181780277e-02
1.345000000000000000e+03 3.956500121943436199e-02
1.346000000000000000e+03 3.930974314705091427e-02
1.347000000000000000e+03 3.905448507466746655e-02
1.348000000000000000e+03 3.879922700228401883e-02
1.349000000000000000e+03 3.854396892990057111e-02
1.350000000000000000e+03 3.828871085751712339e-02
1.351000000000000000e+03 3.803345278513367567e-02
1.352000000000000000e+03 3.777819471275022795e-02
1.353000000000000000e+03 3.752293664036678023e-02
1.354000000000000000e+03 3.726767856798333250e-02
1.355000000000000000e+03 3.701242049559988478e-02
1.356000000000000000e+03 3.675716242321643706e-02
1.357000000000000000e+03 3.650190435083298934e-02
1.358000000000000000e+03 3.624664627844954162e-02
1.359000000000000000e+03 3.599138820606609390e-02
1.360000000000000000e+03 3.573613013368264618e-02
1.361000000000000000e+03 3.548087206129919846e-02
1.362000000000000000e+03 3.522561398891575768e-02
1.363000000000000000e+03 3.497035591653230302e-02
1.364000000000000000e+03 3.471509784414886224e-02
1.365000000000000000e+03 3.445983977176540758e-02
1.366000000000000000e+03 3.420458169938196680e-02
1.367000000000000000e+03 3.394932362699851214e-02
1.368000000000000000e+03 3.369406555461507136e-02
1.369000000000000000e+03 3.343880748223161670e-02
1.370000000000000000e+03 3.318354940984817592e-02
1.371000000000000000e+03 3.292829133746472126e-02
1.372000000000000000e+03 3.267303326508128047e-02
1.373000000000000000e+03 3.241777519269782581e-02
1.374000000000000000e+03 3.216251712031438503e-02
1.375000000000000000e+03 3.190725904793093731e-02
1.376000000000000000e+03 3.165200097554748959e-02
1.377000000000000000e+03 3.139674290316404187e-02
1.378000000000000000e+03 3.114148483078059415e-02
1.379000000000000000e+03 3.088622675839714643e-02
1.380000000000000000e+03 3.063096868601369871e-02
1.381000000000000000e+03 3.037571061363025099e-02
1.382000000000000000e+03 3.012045254124680327e-02
1.383000000000000000e+03 2.986519446886335555e-02
1.384000000000000000e+03 2.960993639647990783e-02
1.385000000000000000e+03 2.935467832409646011e-02
1.386000000000000000e+03 2.909942025171301239e-02
1.387000000000000000e+03 2.884416217932956467e-02
1.388000000000000000e+03 2.858890410694612041e-02
1.389000000000000000e+03 2.833364603456267269e-02
1.390000000000000000e+03 2.807838796217922497e-02
1.391000000000000000e+03 2.782312988979577725e-02
1.392000000000000000e+03 2.756787181741232953e-02
1.393000000000000000e+03 2.731261374502888181e-02
1.394000000000000000e+03 2.705735567264543409e-02
1.395000000000000000e+03 2.680209760026198637e-02
1.396000000000000000e+03 2.654683952787853865e-02
1.397000000000000000e+03 2.629158145549509093e-02
1.398000000000000000e+03 2.603632338311164321e-02
1.399000000000000000e+03 2.578106531072819549e-02
1.400000000000000000e+03 2.552580723834474777e-02
1.401000000000000000e+03 2.527054916596130352e-02
1.402000000000000000e+03 2.501529109357785580e-02
1.403000000000000000e+03 2.476003302119440808e-02
1.404000000000000000e+03 2.450477494881096036e-02
1.405000000000000000e+03 2.424951687642751263e-02
1.406000000000000000e+03 2.399425880404406491e-02
1.407000000000000000e+03 2.373900073166061719e-02
1.408000000000000000e+03 2.348374265927716947e-02
1.409000000000000000e+03 2.322848458689372175e-02
1.410000000000000000e+03 2.297322651451027403e-02
1.411000000000000000e+03 2.271796844212682631e-02
1.412000000000000000e+03 2.246271036974337859e-02
1.413000000000000000e+03 2.220745229735993087e-02
1.414000000000000000e+03 2.195219422497648662e-02
1.415000000000000000e+03 2.169693615259303890e-02
1.416000000000000000e+03 2.144167808020959118e-02
1.417000000000000000e+03 2.118642000782614346e-02
1.418000000000000000e+03 2.093116193544269574e-02
1.419000000000000000e+03 2.067590386305924802e-02
1.420000000000000000e+03 2.042064579067580030e-02
1.421000000000000000e+03 2.016538771829235605e-02
1.422000000000000000e+03 1.991012964590890832e-02
1.423000000000000000e+03 1.965487157352546060e-02
1.424000000000000000e+03 1.939961350114201288e-02
1.425000000000000000e+03 1.914435542875856516e-02
1.426000000000000000e+03 1.888909735637511744e-02
1.427000000000000000e+03 1.863383928399166972e-02
1.428000000000000000e+03 1.837858121160822200e-02
1.429000000000000000e+03 1.812332313922477428e-02
1.430000000000000000e+03 1.786806506684132656e-02
1.431000000000000000e+03 1.761280699445787884e-02
1.432000000000000000e+03 1.735754892207443112e-02
1.433000000000000000e+03 1.710229084969098340e-02
1.434000000000000000e+03 1.684703277730753568e-02
1.435000000000000000e+03 1.659177470492408796e-02
1.436000000000000000e+03 1.633651663254064024e-02
1.437000000000000000e+03 1.608125856015719252e-02
1.438000000000000000e+03 1.582600048777374480e-02
1.439000000000000000e+03 1.557074241539029708e-02
1.440000000000000000e+03 1.531548434300684935e-02
1.441000000000000000e+03 1.506022627062340163e-02
1.442000000000000000e+03 1.480496819823995391e-02
1.443000000000000000e+03 1.454971012585650619e-02
1.444000000000000000e+03 1.429445205347305847e-02
1.445000000000000000e+03 1.403919398108961075e-02
1.446000000000000000e+03 1.378393590870616997e-02
1.447000000000000000e+03 1.352867783632272225e-02
1.448000000000000000e+03 1.327341976393927453e-02
1.449000000000000000e+03 1.301816169155582681e-02
1.450000000000000000e+03 1.276290361917237909e-02
1.451000000000000000e+03 1.250764554678893137e-02
1.452000000000000000e+03 1.225238747440548365e-02
1.453000000000000000e+03 1.199712940202203593e-02
1.454000000000000000e+03 1.174187132963858821e-02
1.455000000000000000e+03 1.148661325725514049e-02
1.456000000000000000e+03 1.123135518487169277e-02
1.457000000000000000e+03 1.097609711248824504e-02
1.458000000000000000e+03 1.072083904010479732e-02
1.459000000000000000e+03 1.046558096772134960e-02
1.460000000000000000e+03 1.021032289533790188e-02
1.461000000000000000e+03 9.955064822954454162e-03
1.462000000000000000e+03 9.699806750571006442e-03
1.463000000000000000e+03 9.444548678187558721e-03
1.464000000000000000e+03 9.189290605804111001e-03
1.465000000000000000e+03 8.934032533420663280e-03
1.466000000000000000e+03 8.678774461037215560e-03
1.467000000000000000e+03 8.423516388653767839e-03
1.468000000000000000e+03 8.168258316270320119e-03
1.469000000000000000e+03 7.913000243886872398e-03
1.470000000000000000e+03 7.657742171503424677e-03
1.471000000000000000e+03 7.402484099119983896e-03
1.472000000000000000e+03 7.147226026736536175e-03
1.473000000000000000e+03 6.891967954353088455e-03
1.474000000000000000e+03 6.636709881969640734e-03
1.475000000000000000e+03 6.381451809586193014e-03
1.476000000000000000e+03 6.126193737202745293e-03
1.477000000000000000e+03 5.870935664819297573e-03
1.478000000000000000e+03 5.615677592435849852e-03
1.479000000000000000e+03 5.360419520052402131e-03
1.480000000000000000e+03 5.105161447668954411e-03
1.481000000000000000e+03 4.849903375285506690e-03
1.482000000000000000e+03 4.594645302902058970e-03
1.483000000000000000e+03 4.339387230518611249e-03
1.484000000000000000e+03 4.084129158135163529e-03
1.485000000000000000e+03 3.828871085751715808e-03
1.486000000000000000e+03 3.573613013368268088e-03
1.487000000000000000e+03 3.318354940984820367e-03
1.488000000000000000e+03 3.063096868601372647e-03
1.489000000000000000e+03 2.807838796217924926e-03
1.490000000000000000e+03 2.552580723834477205e-03
1.491000000000000000e+03 2.297322651451029485e-03
1.492000000000000000e+03 2.042064579067581764e-03
1.493000000000000000e+03 1.786806506684134044e-03
1.494000000000000000e+03 1.531548434300686323e-03
1.495000000000000000e+03 1.276290361917238603e-03
1.496000000000000000e+03 1.021032289533790882e-03
1.497000000000000000e+03 7.657742171503501005e-04
1.498000000000000000e+03 5.105161447669023800e-04
1.499000000000000000e+03 2.552580723834546594e-04
1.500000000000000000e+03 0.000000000000000000e+00
