1.010000000000000000e+02 0.000000000000000000e+00
1.020000000000000000e+02 0.000000000000000000e+00
1.030000000000000000e+02 0.000000000000000000e+00
1.040000000000000000e+02 0.000000000000000000e+00
1.050000000000000000e+02 0.000000000000000000e+00
1.060000000000000000e+02 0.000000000000000000e+00
1.070000000000000000e+02 0.000000000000000000e+00
1.080000000000000000e+02 0.000000000000000000e+00
1.090000000000000000e+02 0.000000000000000000e+00
1.100000000000000000e+02 0.000000000000000000e+00
1.110000000000000000e+02 0.000000000000000000e+00
1.120000000000000000e+02 0.000000000000000000e+00
1.130000000000000000e+02 0.000000000000000000e+00
1.140000000000000000e+02 0.000000000000000000e+00
1.150000000000000000e+02 0.000000000000000000e+00
1.160000000000000000e+02 0.000000000000000000e+00
1.170000000000000000e+02 0.000000000000000000e+00
1.180000000000000000e+02 0.000000000000000000e+00
1.190000000000000000e+02 0.000000000000000000e+00
1.200000000000000000e+02 0.000000000000000000e+00
1.210000000000000000e+02 0.000000000000000000e+00
1.220000000000000000e+02 0.000000000000000000e+00
1.230000000000000000e+02 0.000000000000000000e+00
1.240000000000000000e+02 0.000000000000000000e+00
1.250000000000000000e+02 0.000000000000000000e+00
1.260000000000000000e+02 0.000000000000000000e+00
1.270000000000000000e+02 0.000000000000000000e+00
1.280000000000000000e+02 0.000000000000000000e+00
1.290000000000000000e+02 0.000000000000000000e+00
1.300000000000000000e+02 0.000000000000000000e+00
1.310000000000000000e+02 0.000000000000000000e+00
1.320000000000000000e+02 0.000000000000000000e+00
1.330000000000000000e+02 0.000000000000000000e+00
1.340000000000000000e+02 0.000000000000000000e+00
1.350000000000000000e+02 0.000000000000000000e+00
1.360000000000000000e+02 0.000000000000000000e+00
1.370000000000000000e+02 0.000000000000000000e+00
1.380000000000000000e+02 0.000000000000000000e+00
1.390000000000000000e+02 0.000000000000000000e+00
1.400000000000000000e+02 0.000000000000000000e+00
1.410000000000000000e+02 0.000000000000000000e+00
1.420000000000000000e+02 0.000000000000000000e+00
1.430000000000000000e+02 0.000000000000000000e+00
1.440000000000000000e+02 0.000000000000000000e+00
1.450000000000000000e+02 0.000000000000000000e+00
1.460000000000000000e+02 0.000000000000000000e+00
1.470000000000000000e+02 0.000000000000000000e+00
1.480000000000000000e+02 0.000000000000000000e+00
1.490000000000000000e+02 0.000000000000000000e+00
1.500000000000000000e+02 0.000000000000000000e+00
1.510000000000000000e+02 0.000000000000000000e+00
1.520000000000000000e+02 0.000000000000000000e+00
1.530000000000000000e+02 0.000000000000000000e+00
1.540000000000000000e+02 0.000000000000000000e+00
1.550000000000000000e+02 0.000000000000000000e+00
1.560000000000000000e+02 0.000000000000000000e+00
1.570000000000000000e+02 1.833075793403836362e-02
1.580000000000000000e+02 2.938513293179867425e-01
1.590000000000000000e+02 5.793895480254650926e-02
1.600000000000000000e+02 4.442493472308652325e-01
1.610000000000000000e+02 4.022829483509655635e-01
1.620000000000000000e+02 2.033375202862470310e+00
1.630000000000000000e+02 3.014547622277548466e+00
1.640000000000000000e+02 1.525587457788821544e+00
1.650000000000000000e+02 1.417956641775518500e-01
1.660000000000000000e+02 1.532566644264669264e+00
1.670000000000000000e+02 1.537247909769773324e+00
1.680000000000000000e+02 6.359183994255060424e-02
1.690000000000000000e+02 9.689552733872714985e-01
1.700000000000000000e+02 2.471844472516075975e+00
1.710000000000000000e+02 2.726362724595607911e+00
1.720000000000000000e+02 1.676756003111401050e+00
1.730000000000000000e+02 4.761516766231028708e-01
1.740000000000000000e+02 4.179020460389886726e-01
1.750000000000000000e+02 8.093356291225866084e-01
1.760000000000000000e+02 7.455471897946550630e-01
1.770000000000000000e+02 5.292744365408608154e-01
1.780000000000000000e+02 1.533669096867872561e+00
1.790000000000000000e+02 6.841996658369664530e-01
1.800000000000000000e+02 8.549009444213881981e-01
1.810000000000000000e+02 1.701641552582451089e+00
1.820000000000000000e+02 4.573999238747064044e-01
1.830000000000000000e+02 5.112133362372945911e-01
1.840000000000000000e+02 6.891569394316523489e-01
1.850000000000000000e+02 1.194447291848153903e+00
1.860000000000000000e+02 2.137524155569384021e+00
1.870000000000000000e+02 1.635012199958513657e+00
1.880000000000000000e+02 3.924152068035716701e-01
1.890000000000000000e+02 1.851704879614187726e-01
1.900000000000000000e+02 4.303739943995018580e-01
1.910000000000000000e+02 1.296296575399296103e-01
1.920000000000000000e+02 1.106312986724739655e+00
1.930000000000000000e+02 1.619367429371499911e+00
1.940000000000000000e+02 1.637225508400748986e+00
1.950000000000000000e+02 1.843922929060360261e+00
1.960000000000000000e+02 1.045449375025929495e+00
1.970000000000000000e+02 6.356081750311075584e-01
1.980000000000000000e+02 7.790216175067479210e-01
1.990000000000000000e+02 1.068188079651522848e+00
2.000000000000000000e+02 7.187355300705099426e-01
2.010000000000000000e+02 6.202700551752741154e-01
2.020000000000000000e+02 9.413672781580511018e-01
2.030000000000000000e+02 1.251392744504354670e+00
2.040000000000000000e+02 9.439854225264459053e-01
2.050000000000000000e+02 3.521703490976990647e-01
2.060000000000000000e+02 1.064050821650749157e+00
2.070000000000000000e+02 1.958545327940265368e+00
2.080000000000000000e+02 2.017671395768513509e+00
2.090000000000000000e+02 2.550956465781831550e+00
2.100000000000000000e+02 2.585106330636798511e+00
2.110000000000000000e+02 2.536293422111596030e+00
2.120000000000000000e+02 2.324054616677033280e+00
2.130000000000000000e+02 1.455617937149969121e+00
2.140000000000000000e+02 1.417810064094585654e+00
2.150000000000000000e+02 1.398583025513379541e+00
2.160000000000000000e+02 1.368978142086705319e+00
2.170000000000000000e+02 1.573576548848787171e+00
2.180000000000000000e+02 1.777836999999999223e+00
2.190000000000000000e+02 1.709126264882806501e+00
2.200000000000000000e+02 1.741523654013692912e+00
2.210000000000000000e+02 1.688571441609623580e+00
2.220000000000000000e+02 8.612863111387696335e-01
2.230000000000000000e+02 1.100327724538473273e+00
2.240000000000000000e+02 1.390510852312797807e+00
2.250000000000000000e+02 1.015491220286239171e+00
2.260000000000000000e+02 8.192251389464944022e-02
2.270000000000000000e+02 8.480613211449840316e-02
2.280000000000000000e+02 5.541307266127337705e-01
2.290000000000000000e+02 7.433668875985042224e-01
2.300000000000000000e+02 4.874828939639079817e-01
2.310000000000000000e+02 5.640280186683233055e-01
2.320000000000000000e+02 6.780225914558262179e-01
2.330000000000000000e+02 4.310397840696980620e-01
2.340000000000000000e+02 7.365437121759010886e-01
2.350000000000000000e+02 3.710428052675246446e-01
2.360000000000000000e+02 1.282585085252012203e+00
2.370000000000000000e+02 1.220818742999371098e+00
2.380000000000000000e+02 6.017710676208232190e-01
2.390000000000000000e+02 1.313574878655879297e-01
2.400000000000000000e+02 2.641962078406956960e-01
2.410000000000000000e+02 4.046376975731207359e-01
2.420000000000000000e+02 9.123932804397475449e-01
2.430000000000000000e+02 1.109150924911843417e+00
2.440000000000000000e+02 6.226894505289382042e-01
2.450000000000000000e+02 5.753000553827004593e-01
2.460000000000000000e+02 5.267380149346599927e-01
2.470000000000000000e+02 5.329739147479777284e-01
2.480000000000000000e+02 8.005142976560862822e-01
2.490000000000000000e+02 1.349358618543866406e+00
2.500000000000000000e+02 1.338458836963284604e+00
2.510000000000000000e+02 1.623181516697782545e+00
2.520000000000000000e+02 2.098441584404810101e+00
2.530000000000000000e+02 2.160690387264065926e+00
2.540000000000000000e+02 7.360646471686251857e-01
2.550000000000000000e+02 4.857194844462902616e-01
2.560000000000000000e+02 1.198244567724551457e+00
2.570000000000000000e+02 1.929312124248085958e+00
2.580000000000000000e+02 1.893088994608046916e+00
2.590000000000000000e+02 1.680819706285002324e+00
2.600000000000000000e+02 2.588300766023605703e+00
2.610000000000000000e+02 3.179101443384487968e+00
2.620000000000000000e+02 2.591758703173625111e+00
2.630000000000000000e+02 1.556861660236480649e+00
2.640000000000000000e+02 1.807127429993776735e+00
2.650000000000000000e+02 8.601057355320528286e-01
2.660000000000000000e+02 5.353002777431815629e-01
2.670000000000000000e+02 2.472474778054343680e+00
2.680000000000000000e+02 1.368899639701302240e+00
2.690000000000000000e+02 1.359548666251814808e+00
2.700000000000000000e+02 1.731076924289565833e+00
2.710000000000000000e+02 1.929979016386649038e+00
2.720000000000000000e+02 2.384046675171125784e+00
2.730000000000000000e+02 1.468615568761656665e+00
2.740000000000000000e+02 1.857566041485200881e+00
2.750000000000000000e+02 2.300155541381452284e+00
2.760000000000000000e+02 1.777273991288119248e+00
2.770000000000000000e+02 2.328192761045408510e+00
2.780000000000000000e+02 3.247680594773959317e+00
2.790000000000000000e+02 2.930975722256808247e+00
2.800000000000000000e+02 1.895563655258254432e+00
2.810000000000000000e+02 1.582165035877227899e+00
2.820000000000000000e+02 1.897174077784690827e+00
2.830000000000000000e+02 2.275730361543246261e+00
2.840000000000000000e+02 2.043093296142679982e+00
2.850000000000000000e+02 1.537917445550715190e+00
2.860000000000000000e+02 1.746254250155569565e+00
2.870000000000000000e+02 1.723801588552467123e+00
2.880000000000000000e+02 2.272629568554254575e+00
2.890000000000000000e+02 2.282306130263425104e+00
2.900000000000000000e+02 1.241887898797200629e+00
2.910000000000000000e+02 1.174883167392656524e+00
2.920000000000000000e+02 1.080851258660023406e+00
2.930000000000000000e+02 5.049953567724700942e-01
2.940000000000000000e+02 3.473604772868439383e-01
2.950000000000000000e+02 1.281071802115750113e+00
2.960000000000000000e+02 1.135052420037339527e+00
2.970000000000000000e+02 1.173412039410907104e+00
2.980000000000000000e+02 9.159974389131037009e-01
2.990000000000000000e+02 2.628054219041703332e-01
3.000000000000000000e+02 1.485086807716238383e-02
3.010000000000000000e+02 4.317977456959057880e-01
3.020000000000000000e+02 1.291574392657131254e+00
3.030000000000000000e+02 1.287462205351586064e+00
3.040000000000000000e+02 4.794676191661499942e-01
3.050000000000000000e+02 1.207952950840083473e+00
3.060000000000000000e+02 1.648976247459035926e+00
3.070000000000000000e+02 1.976655819162176142e+00
3.080000000000000000e+02 1.862657844223170933e+00
3.090000000000000000e+02 1.262969434349721753e+00
3.100000000000000000e+02 1.581302891331397564e+00
3.110000000000000000e+02 1.289533329184831656e+00
3.120000000000000000e+02 5.924264793611255797e-01
3.130000000000000000e+02 6.109248581501458553e-01
3.140000000000000000e+02 1.679848538892334542e+00
3.150000000000000000e+02 1.160941682845901823e+00
3.160000000000000000e+02 2.966854686851944090e-01
3.170000000000000000e+02 1.110190294266829580e-01
3.180000000000000000e+02 9.299465693839622515e-01
3.190000000000000000e+02 2.566609657747351281e-01
3.200000000000000000e+02 2.682461257000637866e-01
3.210000000000000000e+02 9.650817446587829362e-01
3.220000000000000000e+02 1.130037348682841225e+00
3.230000000000000000e+02 8.108652557560630525e-01
3.240000000000000000e+02 5.461820244762497500e-01
3.250000000000000000e+02 1.080597572702776343e+00
3.260000000000000000e+02 1.699498079029258424e+00
3.270000000000000000e+02 1.243450119477264915e+00
3.280000000000000000e+02 2.865471549470950396e-01
3.290000000000000000e+02 3.703737903489061067e-01
3.300000000000000000e+02 1.880967758348930374e+00
3.310000000000000000e+02 2.818055740302832568e+00
3.320000000000000000e+02 2.578189231487272970e+00
3.330000000000000000e+02 1.293851742637925684e+00
3.340000000000000000e+02 5.756022681186474532e-01
3.350000000000000000e+02 1.383318385019733920e-01
3.360000000000000000e+02 5.387426885109755093e-01
3.370000000000000000e+02 1.729380480398257758e+00
3.380000000000000000e+02 1.250557812694463644e+00
3.390000000000000000e+02 6.162338301534595608e-01
3.400000000000000000e+02 1.238423869346573503e-01
3.410000000000000000e+02 5.279276410466788860e-01
3.420000000000000000e+02 1.655285696806314544e+00
3.430000000000000000e+02 1.108739267579328835e+00
3.440000000000000000e+02 1.259331090437674661e+00
3.450000000000000000e+02 1.867842956233137564e+00
3.460000000000000000e+02 1.654984849408869918e+00
3.470000000000000000e+02 6.085122032773351286e-01
3.480000000000000000e+02 1.212980649035463321e+00
3.490000000000000000e+02 1.424307288736774924e+00
3.500000000000000000e+02 1.833987846297430835e+00
3.510000000000000000e+02 2.194569914125700905e+00
3.520000000000000000e+02 2.146041497614600058e+00
3.530000000000000000e+02 2.622094373781365118e+00
3.540000000000000000e+02 2.869572596349305282e+00
3.550000000000000000e+02 2.543675548848788104e+00
3.560000000000000000e+02 2.748240191621748263e+00
3.570000000000000000e+02 3.970063758141474608e+00
3.580000000000000000e+02 3.012991212611484837e+00
3.590000000000000000e+02 2.213122760008290335e+00
3.600000000000000000e+02 2.559884169881787130e+00
3.610000000000000000e+02 2.952042857291000910e+00
3.620000000000000000e+02 2.074204323169463127e+00
3.630000000000000000e+02 2.598439870981122279e+00
3.640000000000000000e+02 2.060656848786532880e+00
3.650000000000000000e+02 1.260024003111394064e+00
3.660000000000000000e+02 9.523335088156034134e-01
3.670000000000000000e+02 1.019086659406750250e+00
3.680000000000000000e+02 2.965012272764979251e+00
3.690000000000000000e+02 1.686336850031144197e+00
3.700000000000000000e+02 4.299757581414670460e-01
3.710000000000000000e+02 1.017913754200376442e+00
3.720000000000000000e+02 1.845982818709812401e+00
3.730000000000000000e+02 5.967642799668212428e-01
3.740000000000000000e+02 8.093054131922975403e-01
3.750000000000000000e+02 1.785373328977396534e+00
3.760000000000000000e+02 2.374006135213607482e+00
3.770000000000000000e+02 2.337110711885487024e+00
3.780000000000000000e+02 1.232396448662086863e+00
3.790000000000000000e+02 9.114737706345892310e-01
3.800000000000000000e+02 1.624131805849380328e+00
3.810000000000000000e+02 2.581990257622918339e+00
3.820000000000000000e+02 2.828437240149316523e+00
3.830000000000000000e+02 1.747831632856276851e+00
3.840000000000000000e+02 2.631083525824475799e+00
3.850000000000000000e+02 3.431748005185649486e+00
3.860000000000000000e+02 2.720723800663760628e+00
3.870000000000000000e+02 2.995884770379591444e+00
3.880000000000000000e+02 2.664121830118231227e+00
3.890000000000000000e+02 2.708705774735531868e+00
3.900000000000000000e+02 3.086562380418998330e+00
3.910000000000000000e+02 3.248782124662931814e+00
3.920000000000000000e+02 3.016755558182946828e+00
3.930000000000000000e+02 2.400361889027171625e+00
3.940000000000000000e+02 3.516449321302679731e+00
3.950000000000000000e+02 3.871817994399478824e+00
3.960000000000000000e+02 2.504174404480387750e+00
3.970000000000000000e+02 2.579743548226510530e+00
3.980000000000000000e+02 9.166127778468702303e-01
3.990000000000000000e+02 1.193716559726281323e+00
4.000000000000000000e+02 2.379495711263212687e+00
4.010000000000000000e+02 2.975645434349703411e+00
4.020000000000000000e+02 3.346924340522616337e+00
4.030000000000000000e+02 1.876763863098953822e+00
4.040000000000000000e+02 1.502907994399492964e+00
4.050000000000000000e+02 2.069030263790954560e+00
4.060000000000000000e+02 2.071342798382078243e+00
4.070000000000000000e+02 1.109432343497200879e+00
4.080000000000000000e+02 2.355883479054346363e+00
4.090000000000000000e+02 2.101933063887147402e+00
4.100000000000000000e+02 1.248111207218418395e+00
4.110000000000000000e+02 9.813956270842072449e-01
4.120000000000000000e+02 1.672789883841488967e-01
4.130000000000000000e+02 4.541570427297327295e-01
4.140000000000000000e+02 8.754958155984248203e-01
4.150000000000000000e+02 6.631798413192177000e-01
4.160000000000000000e+02 3.701012742169668690e-01
4.170000000000000000e+02 4.777597405102632089e-01
4.180000000000000000e+02 8.159571895872153036e-01
4.190000000000000000e+02 1.062064142501556008e+00
4.200000000000000000e+02 9.722443963907928532e-01
4.210000000000000000e+02 5.447869356979946343e-01
4.220000000000000000e+02 8.520716394773447666e-02
4.230000000000000000e+02 5.450251205028014967e-01
4.240000000000000000e+02 4.520059545737395990e-01
4.250000000000000000e+02 6.475261873055448980e-01
4.260000000000000000e+02 8.047229143332670920e-02
4.270000000000000000e+02 1.131546553412152489e+00
4.280000000000000000e+02 1.681958108668639429e-01
4.290000000000000000e+02 4.585980665836855708e-01
4.300000000000000000e+02 5.749463982576463739e-01
4.310000000000000000e+02 1.327602503940277900e+00
4.320000000000000000e+02 2.924050221945451167e-01
4.330000000000000000e+02 1.094251003733718169e-01
4.340000000000000000e+02 4.842032003318137434e-01
4.350000000000000000e+02 5.378007961004250825e-01
4.360000000000000000e+02 7.878317008920815434e-02
4.370000000000000000e+02 1.181346293654083279e+00
4.380000000000000000e+02 5.315277044181825339e-01
4.390000000000000000e+02 5.711303231694593308e-01
4.400000000000000000e+02 1.008833275254097162e+00
4.410000000000000000e+02 9.901887423771026375e-01
4.420000000000000000e+02 3.237421008089652608e-01
4.430000000000000000e+02 9.565876042315268890e-02
4.440000000000000000e+02 3.616380671543321657e-01
4.450000000000000000e+02 4.235914542626009194e-01
4.460000000000000000e+02 1.058483642397838986e+00
4.470000000000000000e+02 7.149935388923421842e-01
4.480000000000000000e+02 6.172926921800445665e-01
4.490000000000000000e+02 2.000532157228728514e-01
4.500000000000000000e+02 3.705950487450867525e-01
4.510000000000000000e+02 1.148664912258882786e+00
4.520000000000000000e+02 1.736783212196636006e+00
4.530000000000000000e+02 9.120008031528801240e-01
4.540000000000000000e+02 9.415428892575720132e-01
4.550000000000000000e+02 9.032973648620642448e-01
4.560000000000000000e+02 8.022583092719339781e-01
4.570000000000000000e+02 1.022923398175024534e+00
4.580000000000000000e+02 1.557519300974899989e+00
4.590000000000000000e+02 1.952018887367764188e+00
4.600000000000000000e+02 1.722987018249688695e+00
4.610000000000000000e+02 1.516376444306160920e+00
4.620000000000000000e+02 1.909494765401369198e+00
4.630000000000000000e+02 2.644570854832028139e+00
4.640000000000000000e+02 2.635424983613355199e+00
4.650000000000000000e+02 1.889475095830732032e+00
4.660000000000000000e+02 1.425602306782824513e+00
4.670000000000000000e+02 1.487864856668745794e+00
4.680000000000000000e+02 1.710692631819131782e+00
4.690000000000000000e+02 1.968655979672274903e+00
4.700000000000000000e+02 8.116958749222457081e-01
4.710000000000000000e+02 5.477110736361990861e-01
4.720000000000000000e+02 5.964360317361665498e-01
4.730000000000000000e+02 1.723698456751732166e-01
4.740000000000000000e+02 7.586135656502606128e-01
4.750000000000000000e+02 1.057213619788425873e+00
4.760000000000000000e+02 1.117452704418169684e+00
4.770000000000000000e+02 8.672478477494366400e-01
4.780000000000000000e+02 2.470341207218385293e-01
4.790000000000000000e+02 8.991389425015428039e-03
4.800000000000000000e+02 2.785480279966814354e-01
4.810000000000000000e+02 2.881404328977366647e-01
4.820000000000000000e+02 9.783470209657516015e-02
4.830000000000000000e+02 6.448806214931590564e-02
4.840000000000000000e+02 6.898053021033484500e-02
4.850000000000000000e+02 4.665642895664858236e-01
4.860000000000000000e+02 4.131566630029043785e-01
4.870000000000000000e+02 3.247897581414418422e-01
4.880000000000000000e+02 3.878650510267541707e-01
4.890000000000000000e+02 1.745602907922022995e+00
4.900000000000000000e+02 1.091517257000635954e+00
4.910000000000000000e+02 7.997891489317565661e-01
4.920000000000000000e+02 1.736802894649518869e+00
4.930000000000000000e+02 2.301695215308034559e+00
4.940000000000000000e+02 1.691601246214471610e+00
4.950000000000000000e+02 2.319724824932589247e+00
4.960000000000000000e+02 2.399566261356564034e+00
4.970000000000000000e+02 1.200828039825767579e+00
4.980000000000000000e+02 1.572757794026175215e+00
4.990000000000000000e+02 3.309301560464636527e+00
5.000000000000000000e+02 2.851810744451353852e+00
5.010000000000000000e+02 1.679267697158241646e+00
5.020000000000000000e+02 1.452073444306165584e+00
5.030000000000000000e+02 2.499767410910625820e+00
5.040000000000000000e+02 3.156462804812286915e+00
5.050000000000000000e+02 2.366342177349089582e+00
5.060000000000000000e+02 3.395786309894236688e+00
5.070000000000000000e+02 3.415054088985692626e+00
5.080000000000000000e+02 3.075924513793823589e+00
5.090000000000000000e+02 2.979046773537947335e+00
5.100000000000000000e+02 3.388399474590328531e+00
5.110000000000000000e+02 4.149537186683259549e+00
5.120000000000000000e+02 3.900643846121942371e+00
5.130000000000000000e+02 4.513898612321064263e+00
5.140000000000000000e+02 5.352954092511937212e+00
5.150000000000000000e+02 6.139334495852378559e+00
5.160000000000000000e+02 7.295729158680767767e+00
5.170000000000000000e+02 7.372013306782824849e+00
5.180000000000000000e+02 7.990724912484458820e+00
5.190000000000000000e+02 9.327246197884283774e+00
5.200000000000000000e+02 1.081693817672683799e+01
5.210000000000000000e+02 1.178476579340385122e+01
5.220000000000000000e+02 1.173683788425639740e+01
5.230000000000000000e+02 1.349752362165527408e+01
5.240000000000000000e+02 1.462857494918068113e+01
5.250000000000000000e+02 1.536151873055384165e+01
5.260000000000000000e+02 1.680946550508194548e+01
5.270000000000000000e+02 1.880541717900852916e+01
5.280000000000000000e+02 1.947175495747770668e+01
5.290000000000000000e+02 2.045758268201618080e+01
5.300000000000000000e+02 2.162127148102052487e+01
5.310000000000000000e+02 2.234467097697572413e+01
5.320000000000000000e+02 2.280176895872225273e+01
5.330000000000000000e+02 2.402494233146651226e+01
5.340000000000000000e+02 2.461823251400124235e+01
5.350000000000000000e+02 2.334041358357528395e+01
5.360000000000000000e+02 2.173859271935282322e+01
5.370000000000000000e+02 2.059806755237502784e+01
5.380000000000000000e+02 1.903722201783492451e+01
5.390000000000000000e+02 1.729503109520845072e+01
5.400000000000000000e+02 1.514838353868493037e+01
5.410000000000000000e+02 1.320334948983824219e+01
5.420000000000000000e+02 1.175185879900435459e+01
5.430000000000000000e+02 1.092820640945862110e+01
5.440000000000000000e+02 1.116994692451265081e+01
5.450000000000000000e+02 9.985410074673309211e+00
5.460000000000000000e+02 8.996790193528321211e+00
5.470000000000000000e+02 8.223147918066787909e+00
5.480000000000000000e+02 7.565548116988177973e+00
5.490000000000000000e+02 7.541463644886949425e+00
5.500000000000000000e+02 6.432358103505497304e+00
5.510000000000000000e+02 6.558476025513372498e+00
5.520000000000000000e+02 7.190899848786545867e+00
5.530000000000000000e+02 7.103821744866214871e+00
5.540000000000000000e+02 6.293061482057670020e+00
5.550000000000000000e+02 6.317014944824720146e+00
5.560000000000000000e+02 6.620437379796718425e+00
5.570000000000000000e+02 7.091295786558792891e+00
5.580000000000000000e+02 7.405761078821817556e+00
5.590000000000000000e+02 7.481989163244140428e+00
5.600000000000000000e+02 7.349124619581001383e+00
5.610000000000000000e+02 7.070378722314395681e+00
5.620000000000000000e+02 7.003110726197884439e+00
5.630000000000000000e+02 7.333534253059529995e+00
5.640000000000000000e+02 7.512674612608885916e+00
5.650000000000000000e+02 7.286736173200579536e+00
5.660000000000000000e+02 7.294087838830116688e+00
5.670000000000000000e+02 7.540619626296137135e+00
5.680000000000000000e+02 7.252469516905233782e+00
5.690000000000000000e+02 7.052574276913513351e+00
5.700000000000000000e+02 6.998543999999989218e+00
5.710000000000000000e+02 6.760493875544480780e+00
5.720000000000000000e+02 6.787672502177966471e+00
5.730000000000000000e+02 6.480864320199093420e+00
5.740000000000000000e+02 5.701205704003340813e+00
5.750000000000000000e+02 5.018608766645940911e+00
5.760000000000000000e+02 4.668327626011198106e+00
5.770000000000000000e+02 4.683924307197683490e+00
5.780000000000000000e+02 3.623290634930520948e+00
5.790000000000000000e+02 3.118689241236255238e+00
5.800000000000000000e+02 3.062026742377101041e+00
5.810000000000000000e+02 2.942090871188546508e+00
5.820000000000000000e+02 2.099867965982106011e+00
5.830000000000000000e+02 5.351511232109182892e-01
5.840000000000000000e+02 7.624117822028833036e-01
5.850000000000000000e+02 1.080375184816422252e+00
5.860000000000000000e+02 7.483957174860316197e-01
5.870000000000000000e+02 5.062133941091104816e-01
5.880000000000000000e+02 8.956887519186785829e-01
5.890000000000000000e+02 9.594739514623427112e-01
5.900000000000000000e+02 9.769562661136437232e-01
5.910000000000000000e+02 7.792771879278164171e-01
5.920000000000000000e+02 3.983199641153230552e-01
5.930000000000000000e+02 3.051679643301576927e-01
5.940000000000000000e+02 5.210255544492902180e-01
5.950000000000000000e+02 9.524763685957257087e-01
5.960000000000000000e+02 8.504829516797863809e-01
5.970000000000000000e+02 5.845559161999360764e-01
5.980000000000000000e+02 2.158580545277013485e-01
5.990000000000000000e+02 4.817972057237624450e-01
6.000000000000000000e+02 2.053533810412606353e-01
6.010000000000000000e+02 3.871067254251355227e-01
6.020000000000000000e+02 1.361655996681103431e-01
6.030000000000000000e+02 8.674773210951680635e-01
6.040000000000000000e+02 1.006891122563184915e+00
6.050000000000000000e+02 5.070506718522879153e-01
6.060000000000000000e+02 1.510859272557576460e+00
6.070000000000000000e+02 3.854065268647728915e-01
6.080000000000000000e+02 3.150483148724324556e-01
6.090000000000000000e+02 6.858815764364240009e-01
6.100000000000000000e+02 8.152122839070923277e-01
6.110000000000000000e+02 6.938576077577214285e-01
6.120000000000000000e+02 4.932078848786570213e-01
6.130000000000000000e+02 1.739143029863183587e+00
6.140000000000000000e+02 1.560888403858081253e+00
6.150000000000000000e+02 8.778422043144414877e-01
6.160000000000000000e+02 5.154929278158135730e-01
6.170000000000000000e+02 8.177867753578682564e-01
6.180000000000000000e+02 2.190220903339567204e+00
6.190000000000000000e+02 1.814044421696766829e+00
6.200000000000000000e+02 7.894204457581647238e-01
6.210000000000000000e+02 9.057572140634422286e-01
6.220000000000000000e+02 2.086978205973858636e+00
6.230000000000000000e+02 2.990554045426257357e+00
6.240000000000000000e+02 2.976260649865174024e+00
6.250000000000000000e+02 2.867830431238330924e+00
6.260000000000000000e+02 2.946669303049162636e+00
6.270000000000000000e+02 3.125788349097700092e+00
6.280000000000000000e+02 3.194422601120094019e+00
6.290000000000000000e+02 3.111739672267168189e+00
6.300000000000000000e+02 3.430549209456672966e+00
6.310000000000000000e+02 4.382901559427533122e+00
6.320000000000000000e+02 5.126023337481858455e+00
6.330000000000000000e+02 4.950973093737021102e+00
6.340000000000000000e+02 4.739022634100829912e+00
6.350000000000000000e+02 5.769893927815825663e+00
6.360000000000000000e+02 6.871908644545851708e+00
6.370000000000000000e+02 7.298834736984025184e+00
6.380000000000000000e+02 7.641817138145607480e+00
6.390000000000000000e+02 8.509419437370414840e+00
6.400000000000000000e+02 9.635116456129443563e+00
6.410000000000000000e+02 1.035435877826177631e+01
6.420000000000000000e+02 1.108618636797346646e+01
6.430000000000000000e+02 1.187335462559636490e+01
6.440000000000000000e+02 1.325461818917237977e+01
6.450000000000000000e+02 1.505632359054142100e+01
6.460000000000000000e+02 1.662323825554865309e+01
6.470000000000000000e+02 1.734175047707944373e+01
6.480000000000000000e+02 1.748225714789464291e+01
6.490000000000000000e+02 1.950837869943996949e+01
6.500000000000000000e+02 2.195206336444720208e+01
6.510000000000000000e+02 2.302795124248081748e+01
6.520000000000000000e+02 2.369657188342667808e+01
6.530000000000000000e+02 2.560566840696949598e+01
6.540000000000000000e+02 2.700159490976976073e+01
6.550000000000000000e+02 2.900140789462767543e+01
6.560000000000000000e+02 2.934355593114890226e+01
6.570000000000000000e+02 3.019976908525203285e+01
6.580000000000000000e+02 3.185324261978842486e+01
6.590000000000000000e+02 3.212320591041061846e+01
6.600000000000000000e+02 3.270447803775149964e+01
6.610000000000000000e+02 3.214514034017839350e+01
6.620000000000000000e+02 3.169018418291165418e+01
6.630000000000000000e+02 3.185498067828251223e+01
6.640000000000000000e+02 3.202454165733250591e+01
6.650000000000000000e+02 3.144121203649937968e+01
6.660000000000000000e+02 2.975436024268825008e+01
6.670000000000000000e+02 2.875652472930928383e+01
6.680000000000000000e+02 2.819266731231854095e+01
6.690000000000000000e+02 2.734123649035470294e+01
6.700000000000000000e+02 2.593738453225472540e+01
6.710000000000000000e+02 2.447630054552997692e+01
6.720000000000000000e+02 2.364646192283754544e+01
6.730000000000000000e+02 2.090598839867243086e+01
6.740000000000000000e+02 2.001280878655880358e+01
6.750000000000000000e+02 1.927790975523753403e+01
6.760000000000000000e+02 1.800376817050406686e+01
6.770000000000000000e+02 1.719828810827630150e+01
6.780000000000000000e+02 1.618951036921803421e+01
6.790000000000000000e+02 1.439631731176110385e+01
6.800000000000000000e+02 1.366479516075503398e+01
6.810000000000000000e+02 1.246589677660240802e+01
6.820000000000000000e+02 1.128855181667358742e+01
6.830000000000000000e+02 1.071286692076334290e+01
6.840000000000000000e+02 9.212278286662526128e+00
6.850000000000000000e+02 8.854319669431772510e+00
6.860000000000000000e+02 8.216820094586166690e+00
6.870000000000000000e+02 7.451551599460684017e+00
6.880000000000000000e+02 6.870425155951887852e+00
6.890000000000000000e+02 6.220563055175274414e+00
6.900000000000000000e+02 5.898248366521460007e+00
6.910000000000000000e+02 5.280252576939047593e+00
6.920000000000000000e+02 5.077658141464436170e+00
6.930000000000000000e+02 4.609700771416725296e+00
6.940000000000000000e+02 3.893100093737045686e+00
6.950000000000000000e+02 3.638907132545117662e+00
6.960000000000000000e+02 3.421213773905877886e+00
6.970000000000000000e+02 3.070246781373162648e+00
6.980000000000000000e+02 2.527814734909762162e+00
6.990000000000000000e+02 2.354114988798995611e+00
7.000000000000000000e+02 1.928195433727431851e+00
7.010000000000000000e+02 1.236835142501558238e+00
7.020000000000000000e+02 1.474751840904374278e+00
7.030000000000000000e+02 8.014326494503098974e-01
7.040000000000000000e+02 1.181252863098957162e+00
7.050000000000000000e+02 1.349226263223396005e+00
7.060000000000000000e+02 9.162677349098025115e-01
7.070000000000000000e+02 6.846397303464060169e-01
7.080000000000000000e+02 9.232813198506588659e-01
7.090000000000000000e+02 7.217918568761803044e-01
7.100000000000000000e+02 3.731891968471542365e-01
7.110000000000000000e+02 2.102800584819597141e-01
7.120000000000000000e+02 1.185853360506072152e+00
7.130000000000000000e+02 1.899328380833881225e+00
7.140000000000000000e+02 9.226286951472434383e-01
7.150000000000000000e+02 5.919838002489109519e-01
7.160000000000000000e+02 4.853984501140836683e-01
7.170000000000000000e+02 2.700711679800960052e-01
7.180000000000000000e+02 6.891537274424431869e-01
7.190000000000000000e+02 3.952062767060784965e-01
7.200000000000000000e+02 6.988195777685337617e-01
7.210000000000000000e+02 6.813063534328737125e-01
7.220000000000000000e+02 1.155572839452379874e+00
7.230000000000000000e+02 6.130186558805595931e-01
7.240000000000000000e+02 3.553279348682961136e-01
7.250000000000000000e+02 2.817737062850155794e-01
7.260000000000000000e+02 3.199794426467390540e-01
7.270000000000000000e+02 5.867740635470172772e-02
7.280000000000000000e+02 3.193951779713554151e-01
7.290000000000000000e+02 9.569959715826574786e-01
7.300000000000000000e+02 5.777784988591625481e-01
7.310000000000000000e+02 1.690501070317381171e-01
7.320000000000000000e+02 1.871856487815846126e-01
7.330000000000000000e+02 3.693638761667721315e-01
7.340000000000000000e+02 3.961141698817671197e-01
7.350000000000000000e+02 2.825216193735674564e-01
7.360000000000000000e+02 1.286716720597496089e-01
7.370000000000000000e+02 1.190718365201185902e+00
7.380000000000000000e+02 8.302602041069666594e-01
7.390000000000000000e+02 1.839249448247195495e-01
7.400000000000000000e+02 5.973801679801465925e-01
7.410000000000000000e+02 2.091193691350338835e+00
7.420000000000000000e+02 1.331111934660838436e+00
7.430000000000000000e+02 8.103798266279467200e-01
7.440000000000000000e+02 5.203553870566305362e-01
7.450000000000000000e+02 6.492572009956384393e-01
7.460000000000000000e+02 1.017060073413529553e+00
7.470000000000000000e+02 1.183653655258246395e+00
7.480000000000000000e+02 1.138339024061396199e+00
7.490000000000000000e+02 2.510769616262179538e-01
7.500000000000000000e+02 6.825343795893179522e-01
7.510000000000000000e+02 1.065735803982571728e+00
7.520000000000000000e+02 8.311129159925338961e-01
7.530000000000000000e+02 8.093691603401761414e-01
7.540000000000000000e+02 5.057369315494655293e-01
7.550000000000000000e+02 9.359895380211656624e-02
7.560000000000000000e+02 1.421858473345798624e+00
7.570000000000000000e+02 1.444579933623726831e+00
7.580000000000000000e+02 7.068288409043885778e-01
7.590000000000000000e+02 5.233175401369025703e-01
7.600000000000000000e+02 8.536212953744033438e-01
7.610000000000000000e+02 1.123524275668949191e+00
7.620000000000000000e+02 1.333307926986102787e+00
7.630000000000000000e+02 1.998548779344669901e+00
7.640000000000000000e+02 1.576763841941494659e+00
7.650000000000000000e+02 3.999668185023845246e-01
7.660000000000000000e+02 2.687972177519686867e-01
7.670000000000000000e+02 1.317579304501148574e+00
7.680000000000000000e+02 1.969957383322963107e+00
7.690000000000000000e+02 8.605676391538783498e-01
7.700000000000000000e+02 1.637032186268402856e-01
7.710000000000000000e+02 5.463614828873621931e-01
7.720000000000000000e+02 1.356368288262133071e+00
7.730000000000000000e+02 1.965887696950839203e+00
7.740000000000000000e+02 2.093775969093550238e+00
7.750000000000000000e+02 1.459455892990459080e+00
7.760000000000000000e+02 1.864199584111178032e+00
7.770000000000000000e+02 2.347608237710019807e+00
7.780000000000000000e+02 1.460336168637211385e+00
7.790000000000000000e+02 1.225718358224420879e+00
7.800000000000000000e+02 1.874611732213202542e+00
7.810000000000000000e+02 4.007504246007048687e-01
7.820000000000000000e+02 1.180498897324198770e+00
7.830000000000000000e+02 1.020799778884059483e+00
7.840000000000000000e+02 4.735013704625633535e-01
7.850000000000000000e+02 6.969182837585431445e-01
7.860000000000000000e+02 1.424453892345968642e+00
7.870000000000000000e+02 1.223034163036726296e+00
7.880000000000000000e+02 2.497078527276502813e-01
7.890000000000000000e+02 8.783831335822025466e-01
7.900000000000000000e+02 2.270065049574777394e+00
7.910000000000000000e+02 1.029687839452416043e+00
7.920000000000000000e+02 4.388153629199277594e-02
7.930000000000000000e+02 1.216942901887578254e-01
7.940000000000000000e+02 2.155441294337239466e-01
7.950000000000000000e+02 3.586800443799059712e-01
7.960000000000000000e+02 1.149430839452373121e+00
7.970000000000000000e+02 2.778922247459079564e+00
7.980000000000000000e+02 2.533800084197466607e+00
7.990000000000000000e+02 1.729040838622699860e+00
8.000000000000000000e+02 1.301113280024914332e+00
8.010000000000000000e+02 6.420869493986023357e-01
8.020000000000000000e+02 5.015562358431859824e-01
8.030000000000000000e+02 8.874153741962109709e-01
8.040000000000000000e+02 1.192057309271932430e+00
8.050000000000000000e+02 1.392080790914748123e+00
8.060000000000000000e+02 1.067427551752762716e+00
8.070000000000000000e+02 5.226354793611275307e-01
8.080000000000000000e+02 8.433197813731641013e-01
8.090000000000000000e+02 1.965053789047917387e+00
8.100000000000000000e+02 2.108242047915367401e+00
8.110000000000000000e+02 2.234831622899815073e+00
8.120000000000000000e+02 1.551041264882775383e+00
8.130000000000000000e+02 4.935685851483486708e-01
8.140000000000000000e+02 3.740391449906914634e-01
8.150000000000000000e+02 1.322959079029281559e+00
8.160000000000000000e+02 1.444658322339768208e+00
8.170000000000000000e+02 6.129869489732253651e-01
8.180000000000000000e+02 1.424998209871384924e+00
8.190000000000000000e+02 1.540713179215940309e+00
8.200000000000000000e+02 1.517910942543027275e+00
8.210000000000000000e+02 1.920431831190374750e+00
8.220000000000000000e+02 1.786861923459863721e+00
8.230000000000000000e+02 1.121084525202241444e+00
8.240000000000000000e+02 1.011067690377441153e+00
8.250000000000000000e+02 2.505490615432514279e+00
8.260000000000000000e+02 9.715285376477316159e-01
8.270000000000000000e+02 9.739831401908677355e-01
8.280000000000000000e+02 2.122318187927812350e+00
8.290000000000000000e+02 9.943003242065553415e-01
8.300000000000000000e+02 6.423055729101369016e-01
8.310000000000000000e+02 1.631731361335838182e+00
8.320000000000000000e+02 8.653677853142227594e-01
8.330000000000000000e+02 1.221652265712483754e+00
8.340000000000000000e+02 9.361817415474411597e-01
8.350000000000000000e+02 2.053413140427139960e-01
8.360000000000000000e+02 1.096537534743819098e+00
8.370000000000000000e+02 2.046612825140014635e+00
8.380000000000000000e+02 9.299835776809870502e-01
8.390000000000000000e+02 1.346475457996276548e+00
8.400000000000000000e+02 5.688229193113432114e-01
8.410000000000000000e+02 4.524729477286709711e-01
8.420000000000000000e+02 9.424387261978595109e-01
8.430000000000000000e+02 7.090224740281184101e-02
8.440000000000000000e+02 4.830615055993511264e-01
8.450000000000000000e+02 8.710116618958684276e-01
8.460000000000000000e+02 5.720719595519405676e-01
8.470000000000000000e+02 1.602760725840018108e-01
8.480000000000000000e+02 3.975584832192540774e-01
8.490000000000000000e+02 3.767555825140161962e-01
8.500000000000000000e+02 2.809352211159424906e-01
8.510000000000000000e+02 1.045224398257617926e+00
8.520000000000000000e+02 9.438001514208702591e-01
8.530000000000000000e+02 8.092854243932789959e-01
8.540000000000000000e+02 1.197656453847752767e+00
8.550000000000000000e+02 5.652709153702472067e-01
8.560000000000000000e+02 2.091190043559494616e-01
8.570000000000000000e+02 8.709778498237075173e-01
8.580000000000000000e+02 1.755692469099984443e+00
8.590000000000000000e+02 2.714090617714147946e+00
8.600000000000000000e+02 1.858055430616047721e+00
8.610000000000000000e+02 2.059047046453762242e+00
8.620000000000000000e+02 1.960050812487026839e+00
8.630000000000000000e+02 2.216295398050212917e+00
8.640000000000000000e+02 2.305000481542910595e+00
8.650000000000000000e+02 1.728680933416308019e+00
8.660000000000000000e+02 2.015429551130481833e+00
8.670000000000000000e+02 2.779613214433853230e+00
8.680000000000000000e+02 1.120369997510886506e+00
8.690000000000000000e+02 8.723448705662727454e-01
8.700000000000000000e+02 5.486562405640622586e-01
8.710000000000000000e+02 7.007508894420413359e-01
8.720000000000000000e+02 1.303467635760213739e+00
8.730000000000000000e+02 9.761768734702265249e-01
8.740000000000000000e+02 6.826241487243281947e-01
8.750000000000000000e+02 6.456113974279206191e-01
8.760000000000000000e+02 1.807758883011840068e+00
8.770000000000000000e+02 1.517093257000613038e+00
8.780000000000000000e+02 1.116992571250777555e+00
8.790000000000000000e+02 1.727283364032371926e+00
8.800000000000000000e+02 2.100018264053099326e+00
8.810000000000000000e+02 1.333651578925537651e+00
8.820000000000000000e+02 1.024352243725368705e+00
8.830000000000000000e+02 1.176405629122587726e+00
8.840000000000000000e+02 1.076316236209043042e+00
8.850000000000000000e+02 1.030007547604231410e+00
8.860000000000000000e+02 8.232244467952720690e-01
8.870000000000000000e+02 8.536459601824916144e-01
8.880000000000000000e+02 1.255058552582450027e+00
8.890000000000000000e+02 6.712998759593451492e-01
8.900000000000000000e+02 1.104970707797589879e+00
8.910000000000000000e+02 2.260906094378758446e+00
8.920000000000000000e+02 2.539738712507781937e+00
8.930000000000000000e+02 1.077130859394449747e+00
8.940000000000000000e+02 3.604134787670568718e-01
8.950000000000000000e+02 1.360514401161571074e+00
8.960000000000000000e+02 1.769296768353380012e+00
8.970000000000000000e+02 1.203356082762917723e+00
8.980000000000000000e+02 8.146226166770382804e-01
8.990000000000000000e+02 9.791203219249119405e-01
9.000000000000000000e+02 5.454589601742326765e-01
9.010000000000000000e+02 1.311774914125717562e+00
9.020000000000000000e+02 1.892040191661497506e+00
9.030000000000000000e+02 4.938858120721910105e-01
9.040000000000000000e+02 5.924457697572971249e-01
9.050000000000000000e+02 1.177818695706282837e+00
9.060000000000000000e+02 8.266898313627999428e-01
9.070000000000000000e+02 4.447504675378625705e-01
9.080000000000000000e+02 5.751290989421224964e-01
9.090000000000000000e+02 6.920512634308255695e-01
9.100000000000000000e+02 9.271903808338347597e-01
9.110000000000000000e+02 1.160777834474196357e+00
9.120000000000000000e+02 1.055854113959680818e-01
9.130000000000000000e+02 5.550056192451362502e-01
9.140000000000000000e+02 5.214260643020161012e-01
9.150000000000000000e+02 4.874804418170482490e-01
9.160000000000000000e+02 9.856380298630462722e-02
9.170000000000000000e+02 8.770178122796429276e-01
9.180000000000000000e+02 1.404932068450519989e+00
9.190000000000000000e+02 9.353587121526412140e-01
9.200000000000000000e+02 8.358040367143784177e-01
9.210000000000000000e+02 5.357219742792058703e-01
9.220000000000000000e+02 4.410096072169208403e-01
9.230000000000000000e+02 1.227315905621200187e+00
9.240000000000000000e+02 1.329346065961433787e+00
9.250000000000000000e+02 1.202469952084623150e+00
9.260000000000000000e+02 1.268095766438508409e+00
9.270000000000000000e+02 1.025039238124858754e+00
9.280000000000000000e+02 1.326015909147479910e+00
9.290000000000000000e+02 9.195300149346619101e-01
9.300000000000000000e+02 5.859354822650906236e-01
9.310000000000000000e+02 8.545094420244859768e-01
9.320000000000000000e+02 1.048899079858949701e+00
9.330000000000000000e+02 8.261257367765942883e-01
9.340000000000000000e+02 6.069275432482867938e-01
9.350000000000000000e+02 9.206435061190868518e-01
9.360000000000000000e+02 1.529951926778681859e+00
9.370000000000000000e+02 5.086940956233656497e-01
9.380000000000000000e+02 6.630228400746256412e-01
9.390000000000000000e+02 1.882251831605173731e+00
9.400000000000000000e+02 1.353544778884091304e+00
9.410000000000000000e+02 6.431374996888454820e-01
9.420000000000000000e+02 8.024705101617675140e-01
9.430000000000000000e+02 2.578055799626701172e-01
9.440000000000000000e+02 2.681837326280886447e-01
9.450000000000000000e+02 4.586575416839502317e-01
9.460000000000000000e+02 1.767853998431925255e-01
9.470000000000000000e+02 8.120229800871395787e-01
9.480000000000000000e+02 1.245872589589371859e+00
9.490000000000000000e+02 5.627576598215835446e-01
9.500000000000000000e+02 6.653456243518252045e-01
9.510000000000000000e+02 1.648216789299011831e+00
9.520000000000000000e+02 9.707794268823567441e-01
9.530000000000000000e+02 3.783846830532953120e-01
9.540000000000000000e+02 2.103807245384669844e-01
9.550000000000000000e+02 7.215926255963315272e-01
9.560000000000000000e+02 6.355301194772712270e-01
9.570000000000000000e+02 6.747705301804524103e-01
9.580000000000000000e+02 8.172617147894696288e-01
9.590000000000000000e+02 5.178435729101853457e-01
9.600000000000000000e+02 6.539426295374418663e-01
9.610000000000000000e+02 8.173462016179222633e-01
9.620000000000000000e+02 7.575800763327108500e-01
9.630000000000000000e+02 1.020097920763337385e+00
9.640000000000000000e+02 1.412260099771844635e+00
9.650000000000000000e+02 7.040657001244049473e-01
9.660000000000000000e+02 4.782432227754054299e-01
9.670000000000000000e+02 1.490894953536623824e+00
9.680000000000000000e+02 1.493210386561560910e+00
9.690000000000000000e+02 4.140204131922691211e-01
9.700000000000000000e+02 4.244460678282596655e-01
9.710000000000000000e+02 8.539204798838737620e-01
9.720000000000000000e+02 6.966379740717787428e-01
9.730000000000000000e+02 4.141731115951068354e-01
9.740000000000000000e+02 1.013929036084651125e+00
9.750000000000000000e+02 1.494415945861854222e+00
9.760000000000000000e+02 9.066990659614191372e-01
9.770000000000000000e+02 6.114739676482743302e-01
9.780000000000000000e+02 6.036467274424407448e-01
9.790000000000000000e+02 9.389983198506560713e-01
9.800000000000000000e+02 1.046862075917859070e+00
9.810000000000000000e+02 1.088783623522085575e+00
9.820000000000000000e+02 3.863147672682001876e-01
9.830000000000000000e+02 2.962612839659728436e-01
9.840000000000000000e+02 6.159817542003738211e-01
9.850000000000000000e+02 5.997762565857712724e-01
9.860000000000000000e+02 8.420041862684140010e-01
9.870000000000000000e+02 1.017309622277536851e+00
9.880000000000000000e+02 9.806611661481020592e-01
9.890000000000000000e+02 1.754906458618538556e+00
9.900000000000000000e+02 1.807110194772871381e+00
9.910000000000000000e+02 1.519472413814561662e+00
9.920000000000000000e+02 1.400806844430612763e+00
9.930000000000000000e+02 1.226310620410703489e+00
9.940000000000000000e+02 1.142792727913730211e+00
9.950000000000000000e+02 5.356440045633676927e-01
9.960000000000000000e+02 6.908881296411527595e-01
9.970000000000000000e+02 1.201954938614682833e+00
9.980000000000000000e+02 3.890779844430604095e-01
9.990000000000000000e+02 4.245206598216166860e-01
1.000000000000000000e+03 6.948685530193380311e-01
1.001000000000000000e+03 1.636928307053941101e+00
1.002000000000000000e+03 1.223661709543535148e+00
1.003000000000000000e+03 5.874073941908736218e-01
1.004000000000000000e+03 9.708736763485631416e-01
1.005000000000000000e+03 6.603869999999999463e-01
1.006000000000000000e+03 1.822352303630802306e-01
1.007000000000000000e+03 4.833427615559972301e-02
1.008000000000000000e+03 3.313089087136770194e-01
1.009000000000000000e+03 9.319923174273876398e-01
1.010000000000000000e+03 1.142377170124480257e+00
1.011000000000000000e+03 1.091489120331954110e+00
1.012000000000000000e+03 1.210846323651448841e+00
1.013000000000000000e+03 7.894636804979400235e-01
1.014000000000000000e+03 4.631195101659606461e-01
1.015000000000000000e+03 2.652943443983407645e-01
1.016000000000000000e+03 2.759500850622350065e-01
1.017000000000000000e+03 6.000672344398340075e-01
1.018000000000000000e+03 2.752623291925589966e-01
1.019000000000000000e+03 2.233541535269917278e-01
1.020000000000000000e+03 7.356378340249036807e-01
1.021000000000000000e+03 6.283483983402617934e-01
1.022000000000000000e+03 1.336223448132775493e+00
1.023000000000000000e+03 2.787179380933962336e-01
1.024000000000000000e+03 8.708646576763161562e-01
1.025000000000000000e+03 9.702051970954541638e-01
1.026000000000000000e+03 1.099518532091122269e+00
1.027000000000000000e+03 1.069714319502100608e+00
1.028000000000000000e+03 9.254528215767230392e-01
1.029000000000000000e+03 1.629712497925310810e+00
1.030000000000000000e+03 1.646005229813664927e+00
1.031000000000000000e+03 1.724042292531135390e+00
1.032000000000000000e+03 5.241310746887887229e-01
1.033000000000000000e+03 1.405979242738628399e+00
1.034000000000000000e+03 2.080691374741186817e+00
1.035000000000000000e+03 9.738470580913645147e-01
1.036000000000000000e+03 1.961137572323746192e-01
1.037000000000000000e+03 9.173045518672786613e-01
1.038000000000000000e+03 1.604980228215712623e+00
1.039000000000000000e+03 1.780168697095439789e+00
1.040000000000000000e+03 9.644593049792095085e-01
1.041000000000000000e+03 3.561637344398383420e-01
1.042000000000000000e+03 1.161929744813216869e+00
1.043000000000000000e+03 1.499900915113870692e+00
1.044000000000000000e+03 1.603168315352714313e+00
1.045000000000000000e+03 1.152467946058164383e+00
1.046000000000000000e+03 8.300113775933483096e-01
1.047000000000000000e+03 1.488325937759367390e+00
1.048000000000000000e+03 1.669675697095495348e+00
1.049000000000000000e+03 1.175987307053930175e+00
1.050000000000000000e+03 1.568579960580912758e+00
1.051000000000000000e+03 8.225532448132752972e-01
1.052000000000000000e+03 1.861709991701153255e+00
1.053000000000000000e+03 1.620194767634857591e+00
1.054000000000000000e+03 1.151099253112054077e+00
1.055000000000000000e+03 1.688730863354020117e+00
1.056000000000000000e+03 1.703876730290470931e+00
1.057000000000000000e+03 9.417036991701039916e-01
1.058000000000000000e+03 9.474517551867458476e-01
1.059000000000000000e+03 1.644636141078813507e+00
1.060000000000000000e+03 1.917796356846462880e+00
1.061000000000000000e+03 7.256735435684166236e-01
1.062000000000000000e+03 9.315449377592734947e-01
1.063000000000000000e+03 1.058507024844732580e+00
1.064000000000000000e+03 9.040700082987657149e-01
1.065000000000000000e+03 1.147063643153529489e+00
1.066000000000000000e+03 1.203145282157691565e+00
1.067000000000000000e+03 8.819511327800813039e-01
1.068000000000000000e+03 7.155938672199383399e-01
1.069000000000000000e+03 1.422298468879607869e+00
1.070000000000000000e+03 1.795240203319498962e+00
1.071000000000000000e+03 1.689432099585051805e+00
1.072000000000000000e+03 9.264805527951316400e-01
1.073000000000000000e+03 1.118149904564284425e+00
1.074000000000000000e+03 1.127803732365124878e+00
1.075000000000000000e+03 7.811866327801650911e-01
1.076000000000000000e+03 1.525209796680501384e+00
1.077000000000000000e+03 1.405856232365145564e+00
1.078000000000000000e+03 1.240419946058069600e+00
1.079000000000000000e+03 8.483439668049781446e-01
1.080000000000000000e+03 1.116056948132767568e+00
1.081000000000000000e+03 1.700768215767651359e+00
1.082000000000000000e+03 1.486828058091219429e+00
1.083000000000000000e+03 6.575555145228870746e-01
1.084000000000000000e+03 1.286133865424448075e+00
1.085000000000000000e+03 2.115652340248924457e+00
1.086000000000000000e+03 5.963660373444131801e-01
1.087000000000000000e+03 5.510512240663820727e-01
1.088000000000000000e+03 8.873639170124868469e-01
1.089000000000000000e+03 1.477229296680464543e+00
1.090000000000000000e+03 3.556197510373862447e-01
1.091000000000000000e+03 1.129747357551865172e-01
1.092000000000000000e+03 8.573699813665450753e-01
1.093000000000000000e+03 6.992748921163396414e-01
1.094000000000000000e+03 1.594724240663870196e+00
1.095000000000000000e+03 6.962001452280366376e-01
1.096000000000000000e+03 6.525988381742072741e-01
1.097000000000000000e+03 1.266509653526860291e+00
1.098000000000000000e+03 9.244292261411080069e-01
1.099000000000000000e+03 1.645641234439933598e+00
1.100000000000000000e+03 9.083520207467108420e-01
1.101000000000000000e+03 2.062485975103740099e+00
1.102000000000000000e+03 1.719742576763275022e+00
1.103000000000000000e+03 9.613077676350005873e-01
1.104000000000000000e+03 1.451039854771715598e+00
1.105000000000000000e+03 1.227660103317289586e+00
1.106000000000000000e+03 1.826279780083012838e+00
1.107000000000000000e+03 1.223188618257003091e+00
1.108000000000000000e+03 3.878092178423309111e-01
1.109000000000000000e+03 6.058444398339771775e-01
1.110000000000000000e+03 1.352277236514549230e+00
1.111000000000000000e+03 1.015756302904555097e+00
1.112000000000000000e+03 1.057219975103755427e+00
1.113000000000000000e+03 1.059076724066535302e+00
1.114000000000000000e+03 8.266454771783338096e-01
1.115000000000000000e+03 3.116425708589192767e-01
1.116000000000000000e+03 -9.002286865173417252e-03
1.117000000000000000e+03 2.537714226224497827e-01
1.118000000000000000e+03 1.049452639004153642e+00
1.119000000000000000e+03 8.949696804978295450e-01
1.120000000000000000e+03 5.707126390041523667e-01
1.121000000000000000e+03 1.997618962732895298e+00
1.122000000000000000e+03 4.014515622406323869e-01
1.123000000000000000e+03 5.654627199168544838e-01
1.124000000000000000e+03 4.156424522822092515e-01
1.125000000000000000e+03 1.040591769813358630e-01
1.126000000000000000e+03 5.623091410788259026e-01
1.127000000000000000e+03 7.613601908713006905e-01
1.128000000000000000e+03 1.316176066390024602e+00
1.129000000000000000e+03 1.290172240663910896e+00
1.130000000000000000e+03 3.880517033194671450e-01
1.131000000000000000e+03 7.550019308814405194e-01
1.132000000000000000e+03 1.323864688796733358e+00
1.133000000000000000e+03 1.481140763485412126e+00
1.134000000000000000e+03 1.189656012448164324e+00
1.135000000000000000e+03 6.492907468880133592e-01
1.136000000000000000e+03 4.410039502074798445e-01
1.137000000000000000e+03 1.158388817427453255e+00
1.138000000000000000e+03 1.569466651452277928e+00
1.139000000000000000e+03 1.309874668049790580e+00
1.140000000000000000e+03 2.105073744813236392e+00
1.141000000000000000e+03 1.177041458506299154e+00
1.142000000000000000e+03 7.141056016597505662e-01
1.143000000000000000e+03 1.050613236514528426e+00
1.144000000000000000e+03 7.029416804979042865e-01
1.145000000000000000e+03 1.384187340539631272e-01
1.146000000000000000e+03 2.925957365145335221e-01
1.147000000000000000e+03 8.463892095435958662e-01
1.148000000000000000e+03 1.419542547717762115e+00
1.149000000000000000e+03 1.908254246887969519e+00
1.150000000000000000e+03 1.395262327122132939e+00
1.151000000000000000e+03 1.344639626556008549e+00
1.152000000000000000e+03 1.921395788381721870e+00
1.153000000000000000e+03 1.059414597510364153e+00
1.154000000000000000e+03 1.183677395445119185e+00
1.155000000000000000e+03 4.362624977988261432e-01
1.156000000000000000e+03 2.185390995850540752e-01
1.157000000000000000e+03 7.361823921162008455e-01
1.158000000000000000e+03 9.436324066390024967e-01
1.159000000000000000e+03 8.771351410788404968e-01
1.160000000000000000e+03 1.135959788381764479e+00
1.161000000000000000e+03 1.591042460580871953e+00
1.162000000000000000e+03 4.973725767635540640e-01
1.163000000000000000e+03 4.411064253112036981e-01
1.164000000000000000e+03 1.331008728215820280e+00
1.165000000000000000e+03 7.045468941909481808e-01
1.166000000000000000e+03 9.320831182572228979e-01
1.167000000000000000e+03 8.266846265559960605e-01
1.168000000000000000e+03 4.111406804979099161e-01
1.169000000000000000e+03 1.001807925311349046e-01
1.170000000000000000e+03 5.315379626555849502e-01
1.171000000000000000e+03 1.754496854771747438e+00
1.172000000000000000e+03 1.189425379668081373e+00
1.173000000000000000e+03 1.136133856846459178e+00
1.174000000000000000e+03 1.675175460580922593e+00
1.175000000000000000e+03 1.306685556016607519e+00
1.176000000000000000e+03 1.171058634854771796e+00
1.177000000000000000e+03 1.267070153526971721e+00
1.178000000000000000e+03 7.766446597509872873e-01
1.179000000000000000e+03 7.054363340248637204e-01
1.180000000000000000e+03 8.478547946058093698e-01
1.181000000000000000e+03 9.445861286307180027e-01
1.182000000000000000e+03 5.884445892115370835e-01
1.183000000000000000e+03 4.838191180124740698e-01
1.184000000000000000e+03 6.299211120332285363e-01
1.185000000000000000e+03 1.550042049792471399e+00
1.186000000000000000e+03 4.360556390041789854e-01
1.187000000000000000e+03 1.138217232365116960e+00
1.188000000000000000e+03 2.307508618257287480e+00
1.189000000000000000e+03 9.659400912863650435e-01
1.190000000000000000e+03 8.261644813277557731e-01
1.191000000000000000e+03 1.042202958506219357e+00
1.192000000000000000e+03 3.161311825725079960e-01
1.193000000000000000e+03 8.090462489625556142e-01
1.194000000000000000e+03 2.502678008298752754e+00
1.195000000000000000e+03 2.344313380952308901e+00
1.196000000000000000e+03 1.208496064315387253e+00
1.197000000000000000e+03 1.095612377593351061e+00
1.198000000000000000e+03 1.606224690871395078e+00
1.199000000000000000e+03 2.287886371369266314e+00
1.200000000000000000e+03 7.247350000000880588e-01
1.201000000000000000e+03 1.065075829875526292e+00
1.202000000000000000e+03 1.294191535269676674e+00
1.203000000000000000e+03 7.233728008298929701e-01
1.204000000000000000e+03 5.206281867219902937e-01
1.205000000000000000e+03 1.267061159751096344e+00
1.206000000000000000e+03 1.739771288381715353e+00
1.207000000000000000e+03 1.045445778008313731e+00
1.208000000000000000e+03 1.470692933609957898e+00
1.209000000000000000e+03 1.293050120331892483e+00
1.210000000000000000e+03 7.211312987551866671e-01
1.211000000000000000e+03 1.010972178423225953e+00
1.212000000000000000e+03 1.312508999999999038e+00
1.213000000000000000e+03 7.722727157676197995e-01
1.214000000000000000e+03 4.790957717842286856e-01
1.215000000000000000e+03 1.042552336099597632e+00
1.216000000000000000e+03 1.021446205394138440e+00
1.217000000000000000e+03 9.108040124480876187e-01
1.218000000000000000e+03 1.311709182572612820e+00
1.219000000000000000e+03 8.874698796680087209e-01
1.220000000000000000e+03 2.605718340248966980e-01
1.221000000000000000e+03 1.258855452282135801e+00
1.222000000000000000e+03 1.659041292531103107e+00
1.223000000000000000e+03 1.098528572614129617e+00
1.224000000000000000e+03 1.664589927536209712e+00
1.225000000000000000e+03 1.573034165975101040e+00
1.226000000000000000e+03 9.362305560165593565e-01
1.227000000000000000e+03 6.530659709543540359e-01
1.228000000000000000e+03 2.528716431535297238e-01
1.229000000000000000e+03 5.262107759336122070e-01
1.230000000000000000e+03 2.378451825725654278e-01
1.231000000000000000e+03 2.953555726141378623e-01
1.232000000000000000e+03 4.968093413070574088e-02
1.233000000000000000e+03 7.282436804979697254e-01
1.234000000000000000e+03 8.915562406638880555e-01
1.235000000000000000e+03 1.231826062240661601e+00
1.236000000000000000e+03 1.310731503105601492e+00
1.237000000000000000e+03 1.380750197095462983e+00
1.238000000000000000e+03 1.125275045643179705e+00
1.239000000000000000e+03 8.414129917012445059e-01
1.240000000000000000e+03 9.303359398340382835e-01
1.241000000000000000e+03 1.135995420289831470e+00
1.242000000000000000e+03 1.526718809128625898e+00
1.243000000000000000e+03 1.371884854771743489e+00
1.244000000000000000e+03 7.985303858921353193e-01
1.245000000000000000e+03 8.842715850622157037e-01
1.246000000000000000e+03 8.673442904564134803e-01
1.247000000000000000e+03 1.877533485482307807e-01
1.248000000000000000e+03 1.208839221991677260e+00
1.249000000000000000e+03 1.352599666666658873e+00
1.250000000000000000e+03 1.767186643153511039e+00
1.251000000000000000e+03 1.124851456431599450e+00
1.252000000000000000e+03 7.766053070539524761e-01
1.253000000000000000e+03 3.680300186335302981e-01
1.254000000000000000e+03 7.006939958506190891e-01
1.255000000000000000e+03 1.007846224066399676e+00
1.256000000000000000e+03 1.039143865145227386e+00
1.257000000000000000e+03 7.065815850621937066e-01
1.258000000000000000e+03 3.777484439833721508e-01
1.259000000000000000e+03 8.334724896265484073e-01
1.260000000000000000e+03 7.604711618257198324e-01
1.261000000000000000e+03 3.956766224066013415e-01
1.262000000000000000e+03 1.736943547717125502e-01
1.263000000000000000e+03 1.532870802904566343e+00
1.264000000000000000e+03 1.956332786307062754e+00
1.265000000000000000e+03 1.755065188405807719e+00
1.266000000000000000e+03 7.757819460581052429e-01
1.267000000000000000e+03 4.342166058091450065e-01
1.268000000000000000e+03 1.012190427385888158e+00
1.269000000000000000e+03 9.503734481328135475e-01
1.270000000000000000e+03 6.084918509316754598e-01
1.271000000000000000e+03 3.194042614107353018e-01
1.272000000000000000e+03 3.116499854771391798e-01
1.273000000000000000e+03 1.118040734439818218e+00
1.274000000000000000e+03 1.380002624481321938e+00
1.275000000000000000e+03 1.658971564315419478e+00
1.276000000000000000e+03 1.572348593361035718e+00
1.277000000000000000e+03 4.985459377593377539e-01
1.278000000000000000e+03 8.287914451345661515e-01
1.279000000000000000e+03 1.106118458506169855e+00
1.280000000000000000e+03 1.223536599585060891e+00
1.281000000000000000e+03 1.492649221991637853e+00
1.282000000000000000e+03 1.062929728778467808e+00
1.283000000000000000e+03 7.233751784232317350e-01
1.284000000000000000e+03 4.915368464730691667e-01
1.285000000000000000e+03 9.385859460580497915e-01
1.286000000000000000e+03 8.280605767634462433e-01
1.287000000000000000e+03 1.266168097510374624e+00
1.288000000000000000e+03 9.941458838174093149e-01
1.289000000000000000e+03 1.050881636929382967e+00
1.290000000000000000e+03 1.557824571428599869e+00
1.291000000000000000e+03 5.877549128630292774e-01
1.292000000000000000e+03 1.520450595490063263e-02
1.293000000000000000e+03 4.743169875518247203e-01
1.294000000000000000e+03 1.154849766045553006e+00
1.295000000000000000e+03 8.818194958505904957e-01
1.296000000000000000e+03 1.030060153526934030e+00
1.297000000000000000e+03 1.228089097510374206e+00
1.298000000000000000e+03 3.778391639003588764e-01
1.299000000000000000e+03 7.871542938096184883e-02
1.300000000000000000e+03 8.700028921161373496e-01
1.301000000000000000e+03 1.210027639004144895e+00
1.302000000000000000e+03 7.741581120332583499e-01
1.303000000000000000e+03 1.075147215321000438e+00
1.304000000000000000e+03 1.818343983402515573e-01
1.305000000000000000e+03 0.000000000000000000e+00
1.306000000000000000e+03 0.000000000000000000e+00
1.307000000000000000e+03 0.000000000000000000e+00
1.308000000000000000e+03 0.000000000000000000e+00
1.309000000000000000e+03 0.000000000000000000e+00
1.310000000000000000e+03 0.000000000000000000e+00
1.311000000000000000e+03 0.000000000000000000e+00
1.312000000000000000e+03 0.000000000000000000e+00
1.313000000000000000e+03 0.000000000000000000e+00
1.314000000000000000e+03 0.000000000000000000e+00
1.315000000000000000e+03 0.000000000000000000e+00
1.316000000000000000e+03 0.000000000000000000e+00
1.317000000000000000e+03 0.000000000000000000e+00
1.318000000000000000e+03 0.000000000000000000e+00
1.319000000000000000e+03 0.000000000000000000e+00
1.320000000000000000e+03 0.000000000000000000e+00
1.321000000000000000e+03 0.000000000000000000e+00
1.322000000000000000e+03 0.000000000000000000e+00
1.323000000000000000e+03 0.000000000000000000e+00
1.324000000000000000e+03 0.000000000000000000e+00
1.325000000000000000e+03 0.000000000000000000e+00
1.326000000000000000e+03 0.000000000000000000e+00
1.327000000000000000e+03 0.000000000000000000e+00
1.328000000000000000e+03 0.000000000000000000e+00
1.329000000000000000e+03 0.000000000000000000e+00
1.330000000000000000e+03 0.000000000000000000e+00
1.331000000000000000e+03 0.000000000000000000e+00
1.332000000000000000e+03 0.000000000000000000e+00
1.333000000000000000e+03 0.000000000000000000e+00
1.334000000000000000e+03 0.000000000000000000e+00
1.335000000000000000e+03 0.000000000000000000e+00
1.336000000000000000e+03 0.000000000000000000e+00
1.337000000000000000e+03 0.000000000000000000e+00
1.338000000000000000e+03 0.000000000000000000e+00
1.339000000000000000e+03 0.000000000000000000e+00
1.340000000000000000e+03 0.000000000000000000e+00
1.341000000000000000e+03 0.000000000000000000e+00
1.342000000000000000e+03 0.000000000000000000e+00
1.343000000000000000e+03 0.000000000000000000e+00
1.344000000000000000e+03 0.000000000000000000e+00
1.345000000000000000e+03 0.000000000000000000e+00
1.346000000000000000e+03 0.000000000000000000e+00
1.347000000000000000e+03 0.000000000000000000e+00
1.348000000000000000e+03 0.000000000000000000e+00
1.349000000000000000e+03 0.000000000000000000e+00
1.350000000000000000e+03 0.000000000000000000e+00
1.351000000000000000e+03 0.000000000000000000e+00
1.352000000000000000e+03 0.000000000000000000e+00
1.353000000000000000e+03 0.000000000000000000e+00
1.354000000000000000e+03 0.000000000000000000e+00
1.355000000000000000e+03 0.000000000000000000e+00
1.356000000000000000e+03 0.000000000000000000e+00
1.357000000000000000e+03 0.000000000000000000e+00
1.358000000000000000e+03 0.000000000000000000e+00
1.359000000000000000e+03 0.000000000000000000e+00
1.360000000000000000e+03 0.000000000000000000e+00
1.361000000000000000e+03 0.000000000000000000e+00
1.362000000000000000e+03 0.000000000000000000e+00
1.363000000000000000e+03 0.000000000000000000e+00
1.364000000000000000e+03 0.000000000000000000e+00
1.365000000000000000e+03 0.000000000000000000e+00
1.366000000000000000e+03 0.000000000000000000e+00
1.367000000000000000e+03 0.000000000000000000e+00
1.368000000000000000e+03 0.000000000000000000e+00
1.369000000000000000e+03 0.000000000000000000e+00
1.370000000000000000e+03 0.000000000000000000e+00
1.371000000000000000e+03 0.000000000000000000e+00
1.372000000000000000e+03 0.000000000000000000e+00
1.373000000000000000e+03 0.000000000000000000e+00
1.374000000000000000e+03 0.000000000000000000e+00
1.375000000000000000e+03 0.000000000000000000e+00
1.376000000000000000e+03 0.000000000000000000e+00
1.377000000000000000e+03 0.000000000000000000e+00
1.378000000000000000e+03 0.000000000000000000e+00
1.379000000000000000e+03 0.000000000000000000e+00
1.380000000000000000e+03 0.000000000000000000e+00
1.381000000000000000e+03 0.000000000000000000e+00
1.382000000000000000e+03 0.000000000000000000e+00
1.383000000000000000e+03 0.000000000000000000e+00
1.384000000000000000e+03 0.000000000000000000e+00
1.385000000000000000e+03 0.000000000000000000e+00
1.386000000000000000e+03 0.000000000000000000e+00
1.387000000000000000e+03 0.000000000000000000e+00
1.388000000000000000e+03 0.000000000000000000e+00
1.389000000000000000e+03 0.000000000000000000e+00
1.390000000000000000e+03 0.000000000000000000e+00
1.391000000000000000e+03 0.000000000000000000e+00
1.392000000000000000e+03 0.000000000000000000e+00
1.393000000000000000e+03 0.000000000000000000e+00
1.394000000000000000e+03 0.000000000000000000e+00
1.395000000000000000e+03 0.000000000000000000e+00
1.396000000000000000e+03 0.000000000000000000e+00
1.397000000000000000e+03 0.000000000000000000e+00
1.398000000000000000e+03 0.000000000000000000e+00
1.399000000000000000e+03 0.000000000000000000e+00
1.400000000000000000e+03 0.000000000000000000e+00
1.401000000000000000e+03 0.000000000000000000e+00
1.402000000000000000e+03 0.000000000000000000e+00
1.403000000000000000e+03 0.000000000000000000e+00
1.404000000000000000e+03 0.000000000000000000e+00
1.405000000000000000e+03 0.000000000000000000e+00
1.406000000000000000e+03 0.000000000000000000e+00
1.407000000000000000e+03 0.000000000000000000e+00
1.408000000000000000e+03 0.000000000000000000e+00
1.409000000000000000e+03 0.000000000000000000e+00
1.410000000000000000e+03 0.000000000000000000e+00
1.411000000000000000e+03 0.000000000000000000e+00
1.412000000000000000e+03 0.000000000000000000e+00
1.413000000000000000e+03 0.000000000000000000e+00
1.414000000000000000e+03 0.000000000000000000e+00
1.415000000000000000e+03 0.000000000000000000e+00
1.416000000000000000e+03 0.000000000000000000e+00
1.417000000000000000e+03 0.000000000000000000e+00
1.418000000000000000e+03 0.000000000000000000e+00
1.419000000000000000e+03 0.000000000000000000e+00
1.420000000000000000e+03 0.000000000000000000e+00
1.421000000000000000e+03 0.000000000000000000e+00
1.422000000000000000e+03 0.000000000000000000e+00
1.423000000000000000e+03 0.000000000000000000e+00
1.424000000000000000e+03 0.000000000000000000e+00
1.425000000000000000e+03 0.000000000000000000e+00
1.426000000000000000e+03 0.000000000000000000e+00
1.427000000000000000e+03 0.000000000000000000e+00
1.428000000000000000e+03 0.000000000000000000e+00
1.429000000000000000e+03 0.000000000000000000e+00
1.430000000000000000e+03 0.000000000000000000e+00
1.431000000000000000e+03 0.000000000000000000e+00
1.432000000000000000e+03 0.000000000000000000e+00
1.433000000000000000e+03 0.000000000000000000e+00
1.434000000000000000e+03 0.000000000000000000e+00
1.435000000000000000e+03 0.000000000000000000e+00
1.436000000000000000e+03 0.000000000000000000e+00
1.437000000000000000e+03 0.000000000000000000e+00
1.438000000000000000e+03 0.000000000000000000e+00
1.439000000000000000e+03 0.000000000000000000e+00
1.440000000000000000e+03 0.000000000000000000e+00
1.441000000000000000e+03 0.000000000000000000e+00
1.442000000000000000e+03 0.000000000000000000e+00
1.443000000000000000e+03 0.000000000000000000e+00
1.444000000000000000e+03 0.000000000000000000e+00
1.445000000000000000e+03 0.000000000000000000e+00
1.446000000000000000e+03 0.000000000000000000e+00
1.447000000000000000e+03 0.000000000000000000e+00
1.448000000000000000e+03 0.000000000000000000e+00
1.449000000000000000e+03 0.000000000000000000e+00
1.450000000000000000e+03 0.000000000000000000e+00
1.451000000000000000e+03 0.000000000000000000e+00
1.452000000000000000e+03 0.000000000000000000e+00
1.453000000000000000e+03 0.000000000000000000e+00
1.454000000000000000e+03 0.000000000000000000e+00
1.455000000000000000e+03 0.000000000000000000e+00
1.456000000000000000e+03 0.000000000000000000e+00
1.457000000000000000e+03 0.000000000000000000e+00
1.458000000000000000e+03 0.000000000000000000e+00
1.459000000000000000e+03 0.000000000000000000e+00
1.460000000000000000e+03 0.000000000000000000e+00
1.461000000000000000e+03 0.000000000000000000e+00
1.462000000000000000e+03 0.000000000000000000e+00
1.463000000000000000e+03 0.000000000000000000e+00
1.464000000000000000e+03 0.000000000000000000e+00
1.465000000000000000e+03 0.000000000000000000e+00
1.466000000000000000e+03 0.000000000000000000e+00
1.467000000000000000e+03 0.000000000000000000e+00
1.468000000000000000e+03 0.000000000000000000e+00
1.469000000000000000e+03 0.000000000000000000e+00
1.470000000000000000e+03 0.000000000000000000e+00
1.471000000000000000e+03 0.000000000000000000e+00
1.472000000000000000e+03 0.000000000000000000e+00
1.473000000000000000e+03 0.000000000000000000e+00
1.474000000000000000e+03 0.000000000000000000e+00
1.475000000000000000e+03 0.000000000000000000e+00
1.476000000000000000e+03 0.000000000000000000e+00
1.477000000000000000e+03 0.000000000000000000e+00
1.478000000000000000e+03 0.000000000000000000e+00
1.479000000000000000e+03 0.000000000000000000e+00
1.480000000000000000e+03 0.000000000000000000e+00
1.481000000000000000e+03 0.000000000000000000e+00
1.482000000000000000e+03 0.000000000000000000e+00
1.483000000000000000e+03 0.000000000000000000e+00
1.484000000000000000e+03 0.000000000000000000e+00
1.485000000000000000e+03 0.000000000000000000e+00
1.486000000000000000e+03 0.000000000000000000e+00
1.487000000000000000e+03 0.000000000000000000e+00
1.488000000000000000e+03 0.000000000000000000e+00
1.489000000000000000e+03 0.000000000000000000e+00
1.490000000000000000e+03 0.000000000000000000e+00
1.491000000000000000e+03 0.000000000000000000e+00
1.492000000000000000e+03 0.000000000000000000e+00
1.493000000000000000e+03 0.000000000000000000e+00
1.494000000000000000e+03 0.000000000000000000e+00
1.495000000000000000e+03 0.000000000000000000e+00
1.496000000000000000e+03 0.000000000000000000e+00
1.497000000000000000e+03 0.000000000000000000e+00
1.498000000000000000e+03 0.000000000000000000e+00
1.499000000000000000e+03 0.000000000000000000e+00
1.500000000000000000e+03 0.000000000000000000e+00
