1.010000000000000000e+02 0.000000000000000000e+00
1.020000000000000000e+02 0.000000000000000000e+00
1.030000000000000000e+02 0.000000000000000000e+00
1.040000000000000000e+02 0.000000000000000000e+00
1.050000000000000000e+02 0.000000000000000000e+00
1.060000000000000000e+02 0.000000000000000000e+00
1.070000000000000000e+02 0.000000000000000000e+00
1.080000000000000000e+02 0.000000000000000000e+00
1.090000000000000000e+02 0.000000000000000000e+00
1.100000000000000000e+02 0.000000000000000000e+00
1.110000000000000000e+02 0.000000000000000000e+00
1.120000000000000000e+02 0.000000000000000000e+00
1.130000000000000000e+02 0.000000000000000000e+00
1.140000000000000000e+02 1.312048056408132490e+00
1.150000000000000000e+02 1.163433689379795410e+01
1.160000000000000000e+02 2.558901047915360749e+01
1.170000000000000000e+02 4.085773333886353242e+01
1.180000000000000000e+02 5.717664011823261916e+01
1.190000000000000000e+02 7.788075555901271230e+01
1.200000000000000000e+02 1.105935714582035274e+02
1.210000000000000000e+02 1.525952927193529547e+02
1.220000000000000000e+02 2.108289591371082565e+02
1.230000000000000000e+02 2.857357099356981394e+02
1.240000000000000000e+02 3.739465386226920600e+02
1.250000000000000000e+02 5.020563742999385113e+02
1.260000000000000000e+02 6.542773463596759029e+02
1.270000000000000000e+02 7.611839328562539322e+02
1.280000000000000000e+02 7.606220843186055163e+02
1.290000000000000000e+02 6.129252053515858734e+02
1.300000000000000000e+02 4.142059359676416079e+02
1.310000000000000000e+02 2.420436071561925360e+02
1.320000000000000000e+02 1.330768116780740797e+02
1.330000000000000000e+02 7.356174927193495705e+01
1.340000000000000000e+02 4.181672258398999276e+01
1.350000000000000000e+02 2.620245537647794976e+01
1.360000000000000000e+02 2.114651970130681846e+01
1.370000000000000000e+02 1.774499593114885343e+01
1.380000000000000000e+02 1.332016614187926606e+01
1.390000000000000000e+02 1.237724252022401572e+01
1.400000000000000000e+02 1.322229072583991005e+01
1.410000000000000000e+02 1.066185328769963014e+01
1.420000000000000000e+02 1.256968436423980506e+01
1.430000000000000000e+02 1.406910016383243267e+01
1.440000000000000000e+02 1.346532517734910606e+01
1.450000000000000000e+02 1.161549650902302844e+01
1.460000000000000000e+02 1.156942983820783510e+01
1.470000000000000000e+02 9.969522906036090149e+00
1.480000000000000000e+02 7.266864962041084119e+00
1.490000000000000000e+02 4.521149175482277904e+00
1.500000000000000000e+02 1.899586388093732481e+00
1.510000000000000000e+02 5.359048410694953191e-01
1.520000000000000000e+02 3.576891132130241679e+00
1.530000000000000000e+02 7.311710646546327297e+00
1.540000000000000000e+02 9.658188130263436477e+00
1.550000000000000000e+02 1.008513694876581646e+01
1.560000000000000000e+02 9.961230197261979669e+00
1.570000000000000000e+02 9.970039446795269100e+00
1.580000000000000000e+02 9.987803059116361126e+00
1.590000000000000000e+02 7.663737327110533570e+00
1.600000000000000000e+02 3.540528640190786724e+00
1.610000000000000000e+02 1.027466560049753452e+00
1.620000000000000000e+02 5.980549033602950537e+00
1.630000000000000000e+02 1.416068044379932722e+01
1.640000000000000000e+02 2.089835457166563870e+01
1.650000000000000000e+02 2.977177471893793381e+01
1.660000000000000000e+02 4.025277935296548293e+01
1.670000000000000000e+02 4.718413830740517767e+01
1.680000000000000000e+02 5.564235480813113099e+01
1.690000000000000000e+02 6.539543033188134302e+01
1.700000000000000000e+02 7.657369625388912482e+01
1.710000000000000000e+02 8.947255812694477584e+01
1.720000000000000000e+02 1.024842667357943782e+02
1.730000000000000000e+02 1.152238546152250365e+02
1.740000000000000000e+02 1.303167272142707986e+02
1.750000000000000000e+02 1.487576635006220442e+02
1.760000000000000000e+02 1.672375824517736476e+02
1.770000000000000000e+02 1.922752392242273913e+02
1.780000000000000000e+02 2.222837203235170591e+02
1.790000000000000000e+02 2.506096375855628935e+02
1.800000000000000000e+02 2.726911756689486310e+02
1.810000000000000000e+02 3.046842480713398231e+02
1.820000000000000000e+02 3.418923074465877221e+02
1.830000000000000000e+02 3.773694832192488207e+02
1.840000000000000000e+02 4.101983913728746529e+02
1.850000000000000000e+02 4.500902953951464838e+02
1.860000000000000000e+02 4.959151484339348599e+02
1.870000000000000000e+02 5.439253996681183025e+02
1.880000000000000000e+02 5.931097312175893421e+02
1.890000000000000000e+02 6.465372734287496996e+02
1.900000000000000000e+02 7.085052667081519076e+02
1.910000000000000000e+02 7.710440874507360149e+02
1.920000000000000000e+02 8.275723128811443985e+02
1.930000000000000000e+02 8.811177397013073005e+02
1.940000000000000000e+02 9.546419335407593962e+02
1.950000000000000000e+02 1.024967174652561653e+03
1.960000000000000000e+02 1.088585863098941445e+03
1.970000000000000000e+02 1.150800711470649958e+03
1.980000000000000000e+02 1.211287857498444737e+03
1.990000000000000000e+02 1.276069766645923892e+03
2.000000000000000000e+02 1.334547355527898389e+03
2.010000000000000000e+02 1.378360963915387629e+03
2.020000000000000000e+02 1.406307287284795848e+03
2.030000000000000000e+02 1.437616253266957074e+03
2.040000000000000000e+02 1.450978761509747073e+03
2.050000000000000000e+02 1.442053456544285382e+03
2.060000000000000000e+02 1.417110931134619022e+03
2.070000000000000000e+02 1.376743670261302213e+03
2.080000000000000000e+02 1.329569032358431969e+03
2.090000000000000000e+02 1.274335249325866698e+03
2.100000000000000000e+02 1.208626394442139826e+03
2.110000000000000000e+02 1.133013049782202643e+03
2.120000000000000000e+02 1.060797682016179351e+03
2.130000000000000000e+02 9.880497741754829804e+02
2.140000000000000000e+02 9.108954758971157162e+02
2.150000000000000000e+02 8.295408859780122839e+02
2.160000000000000000e+02 7.575174631196848622e+02
2.170000000000000000e+02 6.925611813316744474e+02
2.180000000000000000e+02 6.309136596764165006e+02
2.190000000000000000e+02 5.742298335752794856e+02
2.200000000000000000e+02 5.306659146442646033e+02
2.210000000000000000e+02 4.835642240821408677e+02
2.220000000000000000e+02 4.427845397760269748e+02
2.230000000000000000e+02 4.086756862476661354e+02
2.240000000000000000e+02 3.749072378967017585e+02
2.250000000000000000e+02 3.409181709041892532e+02
2.260000000000000000e+02 3.123914500933418594e+02
2.270000000000000000e+02 2.873996253266954000e+02
2.280000000000000000e+02 2.645629459863097850e+02
2.290000000000000000e+02 2.461553227961003927e+02
2.300000000000000000e+02 2.279461272557561813e+02
2.310000000000000000e+02 2.095483494088364296e+02
2.320000000000000000e+02 1.931138243310515463e+02
2.330000000000000000e+02 1.804618754200373019e+02
2.340000000000000000e+02 1.657916748185024858e+02
2.350000000000000000e+02 1.546723470441818051e+02
2.360000000000000000e+02 1.442010573947312366e+02
2.370000000000000000e+02 1.327295349719974809e+02
2.380000000000000000e+02 1.256123564613151018e+02
2.390000000000000000e+02 1.185211286247667175e+02
2.400000000000000000e+02 1.128947795270690335e+02
2.410000000000000000e+02 1.084862576228997852e+02
2.420000000000000000e+02 1.037479999170468687e+02
2.430000000000000000e+02 1.022487228998133162e+02
2.440000000000000000e+02 1.050387829495955003e+02
2.450000000000000000e+02 1.071781443799253282e+02
2.460000000000000000e+02 1.068931414021987081e+02
2.470000000000000000e+02 1.083495372951669822e+02
2.480000000000000000e+02 1.034604135213603939e+02
2.490000000000000000e+02 1.026403930304916230e+02
2.500000000000000000e+02 1.053759444306160589e+02
2.510000000000000000e+02 1.062174964744919095e+02
2.520000000000000000e+02 1.075175699439950137e+02
2.530000000000000000e+02 1.070277542003733657e+02
2.540000000000000000e+02 1.079502917859365425e+02
2.550000000000000000e+02 1.116774778054345347e+02
2.560000000000000000e+02 1.167752623936942058e+02
2.570000000000000000e+02 1.222619794855839928e+02
2.580000000000000000e+02 1.320379977598009589e+02
2.590000000000000000e+02 1.452337791951877080e+02
2.600000000000000000e+02 1.614491515453229624e+02
2.610000000000000000e+02 1.864627000207429717e+02
2.620000000000000000e+02 2.152651175482267831e+02
2.630000000000000000e+02 2.446895993777216063e+02
2.640000000000000000e+02 2.629616955818297015e+02
2.650000000000000000e+02 2.548078992947517918e+02
2.660000000000000000e+02 2.096172407176944432e+02
2.670000000000000000e+02 1.523690619166161468e+02
2.680000000000000000e+02 1.033334738448768491e+02
2.690000000000000000e+02 7.115824110350575893e+01
2.700000000000000000e+02 4.974720338311578161e+01
2.710000000000000000e+02 3.795748535047708572e+01
2.720000000000000000e+02 2.876344588052273110e+01
2.730000000000000000e+02 2.172343588674551640e+01
2.740000000000000000e+02 1.899305852343425371e+01
2.750000000000000000e+02 1.567900160132750464e+01
2.760000000000000000e+02 1.515561416303671649e+01
2.770000000000000000e+02 1.284287024263783472e+01
2.780000000000000000e+02 7.746566794233491038e+00
2.790000000000000000e+02 4.878535347853118154e+00
2.800000000000000000e+02 3.827590983198524199e+00
2.810000000000000000e+02 3.050589791537009265e+00
2.820000000000000000e+02 2.934029867662330648e+00
2.830000000000000000e+02 3.629053830533086611e+00
2.840000000000000000e+02 2.927047368388341120e+00
2.850000000000000000e+02 6.615122796235355374e-01
2.860000000000000000e+02 5.150492216284804359e-01
2.870000000000000000e+02 1.009443279195213705e+00
2.880000000000000000e+02 1.349355177763919444e+00
2.890000000000000000e+02 1.252745577058702153e+00
2.900000000000000000e+02 2.548694008711870573e+00
2.910000000000000000e+02 2.423107406139826558e+00
2.920000000000000000e+02 9.054381661481007981e-01
2.930000000000000000e+02 3.103819073843606002e+00
2.940000000000000000e+02 2.758825641020324237e+00
2.950000000000000000e+02 2.911509377722476533e+00
2.960000000000000000e+02 2.492632086081699505e+00
2.970000000000000000e+02 1.077651331397754486e+00
2.980000000000000000e+02 3.455672403650738467e+00
2.990000000000000000e+02 3.750423924082121108e+00
3.000000000000000000e+02 2.347936973247618742e+00
3.010000000000000000e+02 1.552624280439732773e+00
3.020000000000000000e+02 2.450582437046262996e+00
3.030000000000000000e+02 2.740556419742845140e+00
3.040000000000000000e+02 2.754264734909770418e+00
3.050000000000000000e+02 2.172158372121985259e+00
3.060000000000000000e+02 1.150028976980506989e+00
3.070000000000000000e+02 5.848109512549291011e-01
3.080000000000000000e+02 1.289885015556942738e-01
3.090000000000000000e+02 4.957335314250205238e-01
3.100000000000000000e+02 7.516513167392649963e-01
3.110000000000000000e+02 6.388239184816418836e-01
3.120000000000000000e+02 1.081108367973455442e+00
3.130000000000000000e+02 1.168098428749221318e+00
3.140000000000000000e+02 1.103926464011615538e+00
3.150000000000000000e+02 1.181136323791750264e+00
3.160000000000000000e+02 1.454548279402619659e+00
3.170000000000000000e+02 1.762674233976355032e+00
3.180000000000000000e+02 6.156122980709738401e-01
3.190000000000000000e+02 9.268468952499024915e-01
3.200000000000000000e+02 2.560283669985512045e+00
3.210000000000000000e+02 2.847247232109546111e+00
3.220000000000000000e+02 9.079271922837699460e-01
3.230000000000000000e+02 2.968926192243822815e+00
3.240000000000000000e+02 3.595975603609226745e+00
3.250000000000000000e+02 1.040659263430826709e+00
3.260000000000000000e+02 1.092554609705517210e+00
3.270000000000000000e+02 5.718890460485425153e-01
3.280000000000000000e+02 1.186271100180454008e+00
3.290000000000000000e+02 2.550403793446686329e+00
3.300000000000000000e+02 1.288004833229617896e+00
3.310000000000000000e+02 3.753887367766040484e+00
3.320000000000000000e+02 4.522266343840734670e+00
3.330000000000000000e+02 6.077218026965406139e+00
3.340000000000000000e+02 9.340001302634377112e+00
3.350000000000000000e+02 1.388743289151617688e+01
3.360000000000000000e+02 1.922817232109509789e+01
3.370000000000000000e+02 2.704971852727669201e+01
3.380000000000000000e+02 3.385275108691136836e+01
3.390000000000000000e+02 3.799258160547599061e+01
3.400000000000000000e+02 4.107935648413182861e+01
3.410000000000000000e+02 4.626305656502801611e+01
3.420000000000000000e+02 5.383231868492005390e+01
3.430000000000000000e+02 6.047161108691135212e+01
3.440000000000000000e+02 6.642002780336015633e+01
3.450000000000000000e+02 7.528964919726196570e+01
3.460000000000000000e+02 8.558250817880100669e+01
3.470000000000000000e+02 9.243578125673982981e+01
3.480000000000000000e+02 1.066410455507158304e+02
3.490000000000000000e+02 1.338517003111388419e+02
3.500000000000000000e+02 1.671280867689756064e+02
3.510000000000000000e+02 2.082884018460908067e+02
3.520000000000000000e+02 2.622023455299737407e+02
3.530000000000000000e+02 3.272066039817497085e+02
3.540000000000000000e+02 3.892924622277549247e+02
3.550000000000000000e+02 4.200755474382908687e+02
3.560000000000000000e+02 3.726754635835757767e+02
3.570000000000000000e+02 2.750348161792184669e+02
3.580000000000000000e+02 1.790828924704402993e+02
3.590000000000000000e+02 1.153792531936958596e+02
3.600000000000000000e+02 8.005482691350384528e+01
3.610000000000000000e+02 5.777292595727060132e+01
3.620000000000000000e+02 4.355082215722879369e+01
3.630000000000000000e+02 3.407258171748604525e+01
3.640000000000000000e+02 2.708416867454889498e+01
3.650000000000000000e+02 2.349637284380830948e+01
3.660000000000000000e+02 1.973119341008088412e+01
3.670000000000000000e+02 1.602959064716864646e+01
3.680000000000000000e+02 1.351226799004354007e+01
3.690000000000000000e+02 1.224723179630779946e+01
3.700000000000000000e+02 8.783759762289962580e+00
3.710000000000000000e+02 9.515112914125763766e+00
3.720000000000000000e+02 8.469476187305463810e+00
3.730000000000000000e+02 5.658313517942307413e+00
3.740000000000000000e+02 5.872981857913329939e+00
3.750000000000000000e+02 4.202095543870571603e+00
3.760000000000000000e+02 5.300402265035280003e+00
3.770000000000000000e+02 5.029989250777890497e+00
3.780000000000000000e+02 3.043088044389129720e+00
3.790000000000000000e+02 3.512325720033175447e+00
3.800000000000000000e+02 3.657206926778676426e+00
3.810000000000000000e+02 4.079353903546975246e+00
3.820000000000000000e+02 4.477917158440480883e+00
3.830000000000000000e+02 5.513258123003534905e+00
3.840000000000000000e+02 8.576605242273382501e+00
3.850000000000000000e+02 1.067377225134801044e+01
3.860000000000000000e+02 1.215014196017425618e+01
3.870000000000000000e+02 1.489362161377309945e+01
3.880000000000000000e+02 1.925870630159731434e+01
3.890000000000000000e+02 2.445711714374622048e+01
3.900000000000000000e+02 3.011511856253901698e+01
3.910000000000000000e+02 4.028176983820757329e+01
3.920000000000000000e+02 5.257423190831768522e+01
3.930000000000000000e+02 6.077972116780758682e+01
3.940000000000000000e+02 5.931411009749022867e+01
3.950000000000000000e+02 4.687350520846323576e+01
3.960000000000000000e+02 3.413630593030517701e+01
3.970000000000000000e+02 2.781028675585978860e+01
3.980000000000000000e+02 2.841647694046876182e+01
3.990000000000000000e+02 3.286283915370247399e+01
4.000000000000000000e+02 4.090562492221534541e+01
4.010000000000000000e+02 4.978077247459032861e+01
4.020000000000000000e+02 5.516188768145997301e+01
4.030000000000000000e+02 5.301200771624129970e+01
4.040000000000000000e+02 3.988649262601107637e+01
4.050000000000000000e+02 2.140292535877212998e+01
4.060000000000000000e+02 9.491317417133215528e+00
4.070000000000000000e+02 2.772437327732733880e+00
4.080000000000000000e+02 1.572298725839888611e+00
4.090000000000000000e+02 2.648063130678237620e+00
4.100000000000000000e+02 5.700618633271187896e+00
4.110000000000000000e+02 6.717097684570719096e+00
4.120000000000000000e+02 5.818441998962891049e+00
4.130000000000000000e+02 4.667306875544516842e+00
4.140000000000000000e+02 4.059027613023642900e+00
4.150000000000000000e+02 5.224252282928859792e+00
4.160000000000000000e+02 3.048609177556567573e+00
4.170000000000000000e+02 1.911167169052072401e+00
4.180000000000000000e+02 2.650683237087740896e+00
4.190000000000000000e+02 6.891437674756394349e-01
4.200000000000000000e+02 1.388438056834707224e+00
4.210000000000000000e+02 2.733034782825149112e+00
4.220000000000000000e+02 3.849097329807097623e+00
4.230000000000000000e+02 5.166583533291880137e+00
4.240000000000000000e+02 6.697485814976174012e+00
4.250000000000000000e+02 8.234649023024291026e+00
4.260000000000000000e+02 1.134059980584931182e+01
4.270000000000000000e+02 1.451228953329191107e+01
4.280000000000000000e+02 1.727550405640819164e+01
4.290000000000000000e+02 2.031234870358843025e+01
4.300000000000000000e+02 2.289994017631185841e+01
4.310000000000000000e+02 2.984084652426361117e+01
4.320000000000000000e+02 3.731261132545110115e+01
4.330000000000000000e+02 4.310286196639693657e+01
4.340000000000000000e+02 4.926414946909989823e+01
4.350000000000000000e+02 5.837269882596972082e+01
4.360000000000000000e+02 6.912642481642808434e+01
4.370000000000000000e+02 8.130023650767324739e+01
4.380000000000000000e+02 9.636809461729947657e+01
4.390000000000000000e+02 1.161166874922216152e+02
4.400000000000000000e+02 1.414955622899812795e+02
4.410000000000000000e+02 1.740269268201624016e+02
4.420000000000000000e+02 2.101349518564618393e+02
4.430000000000000000e+02 2.564776862090420764e+02
4.440000000000000000e+02 3.206379211989233227e+02
4.450000000000000000e+02 3.983126269446192396e+02
4.460000000000000000e+02 4.964994314392373553e+02
4.470000000000000000e+02 6.089063938601924519e+02
4.480000000000000000e+02 7.227675877203870414e+02
4.490000000000000000e+02 8.320274171920372055e+02
4.500000000000000000e+02 9.465792661481006007e+02
4.510000000000000000e+02 1.075283034640113783e+03
4.520000000000000000e+02 1.207114850684362864e+03
4.530000000000000000e+02 1.358669361750673488e+03
4.540000000000000000e+02 1.543608699439948396e+03
4.550000000000000000e+02 1.756237989421284510e+03
4.560000000000000000e+02 2.018735045841113106e+03
4.570000000000000000e+02 2.326035840696950345e+03
4.580000000000000000e+02 2.697399861232117473e+03
4.590000000000000000e+02 3.141331869944001483e+03
4.600000000000000000e+02 3.639901137108487546e+03
4.610000000000000000e+02 4.160208325451148994e+03
4.620000000000000000e+02 4.664379708151845989e+03
4.630000000000000000e+02 5.023666341630370880e+03
4.640000000000000000e+02 5.111986126322341079e+03
4.650000000000000000e+02 4.864890963078209097e+03
4.660000000000000000e+02 4.279538208462958210e+03
4.670000000000000000e+02 3.551615334370471828e+03
4.680000000000000000e+02 2.836650346608599648e+03
4.690000000000000000e+02 2.229579201990885849e+03
4.700000000000000000e+02 1.768639586600291523e+03
4.710000000000000000e+02 1.429474181290191154e+03
4.720000000000000000e+02 1.176094088759852411e+03
4.730000000000000000e+02 9.752278257622889441e+02
4.740000000000000000e+02 8.205888235220908200e+02
4.750000000000000000e+02 7.077602128992111830e+02
4.760000000000000000e+02 6.122564280647156920e+02
4.770000000000000000e+02 5.349876487243304837e+02
4.780000000000000000e+02 4.683606074865188020e+02
4.790000000000000000e+02 4.150768904376674868e+02
4.800000000000000000e+02 3.742126614810198362e+02
4.810000000000000000e+02 3.367778089174622664e+02
4.820000000000000000e+02 3.065391027380218816e+02
4.830000000000000000e+02 2.765022589296818865e+02
4.840000000000000000e+02 2.494826294752128604e+02
4.850000000000000000e+02 2.268861925119273621e+02
4.860000000000000000e+02 2.075980030491602406e+02
4.870000000000000000e+02 1.954667492843808816e+02
4.880000000000000000e+02 1.796355601534952484e+02
4.890000000000000000e+02 1.642646915577682876e+02
4.900000000000000000e+02 1.530322918689068104e+02
4.910000000000000000e+02 1.449684405102675555e+02
4.920000000000000000e+02 1.360778638041900308e+02
4.930000000000000000e+02 1.293712695291432340e+02
4.940000000000000000e+02 1.229917527691349761e+02
4.950000000000000000e+02 1.159057354698195184e+02
4.960000000000000000e+02 1.094797295581828678e+02
4.970000000000000000e+02 1.071111532047292911e+02
4.980000000000000000e+02 1.062922385732061343e+02
4.990000000000000000e+02 1.016840078884050200e+02
5.000000000000000000e+02 1.000217535407592493e+02
5.010000000000000000e+02 1.019484195147241792e+02
5.020000000000000000e+02 1.029349381870980409e+02
5.030000000000000000e+02 1.108800164696119026e+02
5.040000000000000000e+02 1.212542334301118672e+02
5.050000000000000000e+02 1.358841107654012319e+02
5.060000000000000000e+02 1.528086943580167940e+02
5.070000000000000000e+02 1.667647148900871343e+02
5.080000000000000000e+02 1.754564417133374832e+02
5.090000000000000000e+02 1.704731373988799703e+02
5.100000000000000000e+02 1.388729342874915460e+02
5.110000000000000000e+02 9.908145671022575129e+01
5.120000000000000000e+02 7.111002711885492999e+01
5.130000000000000000e+02 5.641607244969939927e+01
5.140000000000000000e+02 4.636181833851911449e+01
5.150000000000000000e+02 3.861033084629755763e+01
5.160000000000000000e+02 3.548454348267993907e+01
5.170000000000000000e+02 3.315537828873674187e+01
5.180000000000000000e+02 2.755325915370253398e+01
5.190000000000000000e+02 2.540300872433100920e+01
5.200000000000000000e+02 2.510292915785106160e+01
5.210000000000000000e+02 2.086023833851879772e+01
5.220000000000000000e+02 1.724985502177963070e+01
5.230000000000000000e+02 1.811307355320473889e+01
5.240000000000000000e+02 1.778905846536699542e+01
5.250000000000000000e+02 1.512791681601336613e+01
5.260000000000000000e+02 1.393823568346814312e+01
5.270000000000000000e+02 1.250086515553702426e+01
5.280000000000000000e+02 1.002310069072811416e+01
5.290000000000000000e+02 8.728100624766639726e+00
5.300000000000000000e+02 9.790163273123175358e+00
5.310000000000000000e+02 9.185286942128190191e+00
5.320000000000000000e+02 7.456942199128814508e+00
5.330000000000000000e+02 6.977604641227720172e+00
5.340000000000000000e+02 8.075725784069714308e+00
5.350000000000000000e+02 8.271045890271723877e+00
5.360000000000000000e+02 6.599793830118188431e+00
5.370000000000000000e+02 6.279652787803365221e+00
5.380000000000000000e+02 6.056151866417734730e+00
5.390000000000000000e+02 5.557212392449714322e+00
5.400000000000000000e+02 5.785815669985468368e+00
5.410000000000000000e+02 4.918832895457352805e+00
5.420000000000000000e+02 3.708650330429394515e+00
5.430000000000000000e+02 4.732695901057929255e+00
5.440000000000000000e+02 5.874444238332292123e+00
5.450000000000000000e+02 4.475665197054565780e+00
5.460000000000000000e+02 2.193465810827642581e+00
5.470000000000000000e+02 2.133187766023643128e+00
5.480000000000000000e+02 2.613564653598845933e+00
5.490000000000000000e+02 2.355641183157012097e+00
5.500000000000000000e+02 1.405864524678550165e+00
5.510000000000000000e+02 4.538173845675185780e-01
5.520000000000000000e+02 1.468560095623322459e+00
5.530000000000000000e+02 1.177872623600157320e+00
5.540000000000000000e+02 4.275223644472005424e-01
5.550000000000000000e+02 4.516853018046148027e-01
5.560000000000000000e+02 5.969020111986538257e-01
5.570000000000000000e+02 1.744172228583305673e+00
5.580000000000000000e+02 2.391579732835511951e+00
5.590000000000000000e+02 2.785139760058074287e+00
5.600000000000000000e+02 4.312680350342222191e+00
5.610000000000000000e+02 4.535404887160340515e+00
5.620000000000000000e+02 2.047580630858538697e+00
5.630000000000000000e+02 3.725556758971161564e+00
5.640000000000000000e+02 1.495580000622265926e+00
5.650000000000000000e+02 1.405023543870584257e+00
5.660000000000000000e+02 3.052675863306371085e+00
5.670000000000000000e+02 3.195442804397451653e+00
5.680000000000000000e+02 3.476053622447538571e-01
5.690000000000000000e+02 3.126209713752337582e-01
5.700000000000000000e+02 1.363721472723472994e+00
5.710000000000000000e+02 1.385940293092713604e+00
5.720000000000000000e+02 1.441948664129880653e-01
5.730000000000000000e+02 1.800494789209661772e-01
5.740000000000000000e+02 5.641171095208461495e-01
5.750000000000000000e+02 8.815674512383872563e-02
5.760000000000000000e+02 3.559164644366185071e-01
5.770000000000000000e+02 1.465285158680775357e+00
5.780000000000000000e+02 2.554835199751090080e+00
5.790000000000000000e+02 2.421170476565780216e+00
5.800000000000000000e+02 2.019399830997744560e-01
5.810000000000000000e+02 9.949037994191689549e-01
5.820000000000000000e+02 3.496609497303977410e+00
5.830000000000000000e+02 4.690601702551342456e+00
5.840000000000000000e+02 4.033094362372972697e+00
5.850000000000000000e+02 4.389333252592251711e+00
5.860000000000000000e+02 8.883994659406695860e+00
5.870000000000000000e+02 6.822338512756800810e+00
5.880000000000000000e+02 5.542812359261525934e+00
5.890000000000000000e+02 6.348875411325430207e+00
5.900000000000000000e+02 6.450612623314664340e+00
5.910000000000000000e+02 6.717725571873021551e+00
5.920000000000000000e+02 8.221697189547876761e+00
5.930000000000000000e+02 8.836646082970336380e+00
5.940000000000000000e+02 9.680296678904781515e+00
5.950000000000000000e+02 9.955264170468682394e+00
5.960000000000000000e+02 7.930984065961379947e+00
5.970000000000000000e+02 6.210465611906239580e+00
5.980000000000000000e+02 8.274499596432896453e+00
5.990000000000000000e+02 1.000204679112220596e+01
6.000000000000000000e+02 8.464123476664454415e+00
6.010000000000000000e+02 5.887254307756174754e+00
6.020000000000000000e+02 6.190793187927788210e+00
6.030000000000000000e+02 7.402496483509589886e+00
6.040000000000000000e+02 6.332629517112650319e+00
6.050000000000000000e+02 6.697049902302385505e+00
6.060000000000000000e+02 6.906004740925173024e+00
6.070000000000000000e+02 6.180746203484743795e+00
6.080000000000000000e+02 6.743954555278999230e+00
6.090000000000000000e+02 5.142574170504067510e+00
6.100000000000000000e+02 4.085337557560670518e+00
6.110000000000000000e+02 5.837443104957506179e+00
6.120000000000000000e+02 8.210249888197481027e+00
6.130000000000000000e+02 8.207023759800829765e+00
6.140000000000000000e+02 6.006283107031693547e+00
6.150000000000000000e+02 7.052349277743244826e+00
6.160000000000000000e+02 5.948420592408092844e+00
6.170000000000000000e+02 6.285089405310171351e+00
6.180000000000000000e+02 6.140166326005663144e+00
6.190000000000000000e+02 3.440786908525219179e+00
6.200000000000000000e+02 3.476276010993572196e+00
6.210000000000000000e+02 3.314529001659064278e+00
6.220000000000000000e+02 4.149984643849801813e+00
6.230000000000000000e+02 4.504960962663357549e+00
6.240000000000000000e+02 3.614473952716725780e+00
6.250000000000000000e+02 3.162338241443686915e+00
6.260000000000000000e+02 5.336789473968059028e+00
6.270000000000000000e+02 4.512228101824938165e+00
6.280000000000000000e+02 4.138042204729314832e+00
6.290000000000000000e+02 3.892621587015130391e+00
6.300000000000000000e+02 3.385037107424289093e+00
6.310000000000000000e+02 3.181596299522895244e+00
6.320000000000000000e+02 2.657031939639092677e+00
6.330000000000000000e+02 3.350745930304932063e+00
6.340000000000000000e+02 2.724663869736527300e+00
6.350000000000000000e+02 1.907442543663134815e+00
6.360000000000000000e+02 2.105172216967410304e+00
6.370000000000000000e+02 2.619627393901688972e+00
6.380000000000000000e+02 1.905501679527079162e+00
6.390000000000000000e+02 4.826122820991487039e+00
6.400000000000000000e+02 3.262616159095641066e+00
6.410000000000000000e+02 2.381298557560663998e+00
6.420000000000000000e+02 4.891391413814607958e+00
6.430000000000000000e+02 6.147950180045642199e+00
6.440000000000000000e+02 4.527297157196173316e+00
6.450000000000000000e+02 4.073032460277950406e+00
6.460000000000000000e+02 4.233509679527070801e+00
6.470000000000000000e+02 4.072579713811688151e+00
6.480000000000000000e+02 3.062481636589873712e+00
6.490000000000000000e+02 1.629837283551122340e+00
6.500000000000000000e+02 1.867120952924117061e+00
6.510000000000000000e+02 3.630028344119507366e+00
6.520000000000000000e+02 2.551291447832372050e+00
6.530000000000000000e+02 1.737950895479066782e+00
6.540000000000000000e+02 2.629853447832393165e+00
6.550000000000000000e+02 2.999861798382080114e+00
6.560000000000000000e+02 3.106203642886764538e+00
6.570000000000000000e+02 1.090611055797525264e+00
6.580000000000000000e+02 7.874029033395573141e-01
6.590000000000000000e+02 1.287166688861236974e+00
6.600000000000000000e+02 1.091255960174228434e+00
6.610000000000000000e+02 4.210226791122163581e-01
6.620000000000000000e+02 1.480800385397236907e+00
6.630000000000000000e+02 2.333847878241028795e+00
6.640000000000000000e+02 6.897260248911110114e-01
6.650000000000000000e+02 3.899937716241326235e-01
6.660000000000000000e+02 1.270716333333333337e+00
6.670000000000000000e+02 2.476299859572699269e+00
6.680000000000000000e+02 1.363815406347222980e+00
6.690000000000000000e+02 3.736192165525819564e-01
6.700000000000000000e+02 5.670718884048890907e-01
6.710000000000000000e+02 1.993727587637421417e+00
6.720000000000000000e+02 3.186290585978019951e+00
6.730000000000000000e+02 3.431925156781460373e+00
6.740000000000000000e+02 6.292687199751081373e-01
6.750000000000000000e+02 2.473476326280825699e+00
6.760000000000000000e+02 3.782921042306092385e+00
6.770000000000000000e+02 3.870262918066792235e+00
6.780000000000000000e+02 4.086919491599243059e+00
6.790000000000000000e+02 5.015537567399408481e+00
6.800000000000000000e+02 6.105298212818912162e+00
6.810000000000000000e+02 5.841247658784487484e+00
6.820000000000000000e+02 7.754053283284921605e+00
6.830000000000000000e+02 9.950600683260708124e+00
6.840000000000000000e+02 1.117333039618334745e+01
6.850000000000000000e+02 1.206720962663347763e+01
6.860000000000000000e+02 1.343013739058286582e+01
6.870000000000000000e+02 1.308254538892345842e+01
6.880000000000000000e+02 1.519195888612318512e+01
6.890000000000000000e+02 1.583166796307818736e+01
6.900000000000000000e+02 1.683918136071359939e+01
6.910000000000000000e+02 2.012466605890888260e+01
6.920000000000000000e+02 2.341522110765393805e+01
6.930000000000000000e+02 2.588478342045210923e+01
6.940000000000000000e+02 2.831996853142496917e+01
6.950000000000000000e+02 2.876235763327111883e+01
6.960000000000000000e+02 2.893636498444301708e+01
6.970000000000000000e+02 2.746482208462982300e+01
6.980000000000000000e+02 2.217971399917037800e+01
6.990000000000000000e+02 1.985939247200336766e+01
7.000000000000000000e+02 1.811967397220495357e+01
7.010000000000000000e+02 1.474234111387682056e+01
7.020000000000000000e+02 1.104534196806304536e+01
7.030000000000000000e+02 9.654649960796529484e+00
7.040000000000000000e+02 9.710821455299701199e+00
7.050000000000000000e+02 7.185166588967307533e+00
7.060000000000000000e+02 6.981909783447402873e+00
7.070000000000000000e+02 4.304776300767357178e+00
7.080000000000000000e+02 4.098257388635347276e+00
7.090000000000000000e+02 5.140606253059519126e+00
7.100000000000000000e+02 4.471014097697622702e+00
7.110000000000000000e+02 3.369376417548222147e+00
7.120000000000000000e+02 3.729266874922187558e+00
7.130000000000000000e+02 4.446044021779711031e+00
7.140000000000000000e+02 3.288158648413211704e+00
7.150000000000000000e+02 3.428166241443650009e+00
7.160000000000000000e+02 4.123433408836375769e+00
7.170000000000000000e+02 1.628582876996452100e+00
7.180000000000000000e+02 2.499362590748880619e-01
7.190000000000000000e+02 3.460017622277558047e+00
7.200000000000000000e+02 2.767770655880432251e+00
7.210000000000000000e+02 1.513000314457579432e+00
7.220000000000000000e+02 2.261157230035297783e+00
7.230000000000000000e+02 2.880115860609830936e+00
7.240000000000000000e+02 1.696107756067150252e+00
7.250000000000000000e+02 1.190016856698492775e+00
7.260000000000000000e+02 2.511804939431661499e+00
7.270000000000000000e+02 7.898919979257289503e-01
7.280000000000000000e+02 7.293155570303822000e-01
7.290000000000000000e+02 2.051131325451187148e+00
7.300000000000000000e+02 2.077855459448321174e-01
7.310000000000000000e+02 5.728477119452464184e-01
7.320000000000000000e+02 3.291015984235631242e-01
7.330000000000000000e+02 1.464984568139391374e+00
7.340000000000000000e+02 8.755934952301472896e-01
7.350000000000000000e+02 2.398273424600727843e-01
7.360000000000000000e+02 1.090970143123828118e+00
7.370000000000000000e+02 5.310623890495771438e-01
7.380000000000000000e+02 1.179878803360342454e+00
7.390000000000000000e+02 1.674153490354691742e+00
7.400000000000000000e+02 1.443332952706919192e+00
7.410000000000000000e+02 1.279472930927191721e+00
7.420000000000000000e+02 9.311080392034534192e-01
7.430000000000000000e+02 1.276975097529603753e-01
7.440000000000000000e+02 9.861715743622093133e-02
7.450000000000000000e+02 2.852425849408721237e-01
7.460000000000000000e+02 3.405715473968062845e-01
7.470000000000000000e+02 2.759877654013688231e-01
7.480000000000000000e+02 1.408856267164473319e+00
7.490000000000000000e+02 2.049048500933391193e+00
7.500000000000000000e+02 1.639149914540594777e+00
7.510000000000000000e+02 8.495828475420164061e-01
7.520000000000000000e+02 6.567670983198921064e-01
7.530000000000000000e+02 7.231227347023123642e-01
7.540000000000000000e+02 1.419648809622571783e-01
7.550000000000000000e+02 1.649951654173675841e-01
7.560000000000000000e+02 7.730005457373967381e-01
7.570000000000000000e+02 3.264479867274896474e-01
7.580000000000000000e+02 1.645336935698023417e+00
7.590000000000000000e+02 1.385866358016992095e+00
7.600000000000000000e+02 1.371878965989238530e+00
7.610000000000000000e+02 1.132316664592421418e+00
7.620000000000000000e+02 1.200901788832234585e-01
7.630000000000000000e+02 2.117695875856563936e-01
7.640000000000000000e+02 1.550816546359691017e+00
7.650000000000000000e+02 1.987676123210951218e+00
7.660000000000000000e+02 1.806662756067192621e+00
7.670000000000000000e+02 5.380494818502268295e-01
7.680000000000000000e+02 7.955501642812887741e-01
7.690000000000000000e+02 3.808556851068239713e+00
7.700000000000000000e+02 2.928940489110138046e+00
7.710000000000000000e+02 2.783459641775565263e+00
7.720000000000000000e+02 1.676101032565838533e+00
7.730000000000000000e+02 2.100936635137946595e+00
7.740000000000000000e+02 2.147572113254518023e+00
7.750000000000000000e+02 2.047163776602381802e+00
7.760000000000000000e+02 4.074852735532050296e+00
7.770000000000000000e+02 4.732456006845048080e+00
7.780000000000000000e+02 5.626191512134416151e+00
7.790000000000000000e+02 4.793302570628496184e+00
7.800000000000000000e+02 4.094102331397758476e+00
7.810000000000000000e+02 5.050845416718531489e+00
7.820000000000000000e+02 6.722816611698814171e+00
7.830000000000000000e+02 7.296730342803811276e+00
7.840000000000000000e+02 8.009318458618542635e+00
7.850000000000000000e+02 8.181703310516491356e+00
7.860000000000000000e+02 8.137803353038785659e+00
7.870000000000000000e+02 8.882246874922177682e+00
7.880000000000000000e+02 1.171843372121960059e+01
7.890000000000000000e+02 1.428778041692594947e+01
7.900000000000000000e+02 1.345315887367764418e+01
7.910000000000000000e+02 1.996383869943983669e+01
7.920000000000000000e+02 2.234355087118849426e+01
7.930000000000000000e+02 2.502448416839476408e+01
7.940000000000000000e+02 2.906957260526860054e+01
7.950000000000000000e+02 3.385257549885913164e+01
7.960000000000000000e+02 3.822281596018250127e+01
7.970000000000000000e+02 4.145709996888622584e+01
7.980000000000000000e+02 4.815108767890489361e+01
7.990000000000000000e+02 5.192938476565729644e+01
8.000000000000000000e+02 5.692843152872828938e+01
8.010000000000000000e+02 6.553668846297487960e+01
8.020000000000000000e+02 7.501658338033986695e+01
8.030000000000000000e+02 8.628256536195758031e+01
8.040000000000000000e+02 1.047198294959544285e+02
8.050000000000000000e+02 1.160227297801738757e+02
8.060000000000000000e+02 1.348613614187923417e+02
8.070000000000000000e+02 1.445786348060566979e+02
8.080000000000000000e+02 1.495187149139182452e+02
8.090000000000000000e+02 1.479631822236051732e+02
8.100000000000000000e+02 1.329118632233978587e+02
8.110000000000000000e+02 1.125399536403233043e+02
8.120000000000000000e+02 8.912437777639469516e+01
8.130000000000000000e+02 6.893799500103695266e+01
8.140000000000000000e+02 5.562682064924254632e+01
8.150000000000000000e+02 4.477361861232072471e+01
8.160000000000000000e+02 3.530614885086056631e+01
8.170000000000000000e+02 2.891393014519835347e+01
8.180000000000000000e+02 2.388501581622045933e+01
8.190000000000000000e+02 2.081790973869750516e+01
8.200000000000000000e+02 1.841284271313011800e+01
8.210000000000000000e+02 1.789005560879488499e+01
8.220000000000000000e+02 1.543818489216108780e+01
8.230000000000000000e+02 1.220479431030907946e+01
8.240000000000000000e+02 1.098074414436842616e+01
8.250000000000000000e+02 9.384013158440479785e+00
8.260000000000000000e+02 1.026420227753578196e+01
8.270000000000000000e+02 7.796273214685736974e+00
8.280000000000000000e+02 6.034261849025286395e+00
8.290000000000000000e+02 6.808954922837638257e+00
8.300000000000000000e+02 8.057300649450338526e+00
8.310000000000000000e+02 7.432345359186989242e+00
8.320000000000000000e+02 5.594342939016743621e+00
8.330000000000000000e+02 7.130331602986936801e+00
8.340000000000000000e+02 6.743384099564433853e+00
8.350000000000000000e+02 6.374030367558593646e+00
8.360000000000000000e+02 6.853451862476692469e+00
8.370000000000000000e+02 6.663399783862306691e+00
8.380000000000000000e+02 6.621946344741695967e+00
8.390000000000000000e+02 8.602854485169062926e+00
8.400000000000000000e+02 6.809227167185231799e+00
8.410000000000000000e+02 6.370675468367558381e+00
8.420000000000000000e+02 7.600601380833847287e+00
8.430000000000000000e+02 8.230047065961420216e+00
8.440000000000000000e+02 7.324610867662280533e+00
8.450000000000000000e+02 6.613369293092723034e+00
8.460000000000000000e+02 7.417840034847483111e+00
8.470000000000000000e+02 6.086733331673948477e+00
8.480000000000000000e+02 7.185720926586498081e+00
8.490000000000000000e+02 7.281452506948741465e+00
8.500000000000000000e+02 6.312610064094553053e+00
8.510000000000000000e+02 5.082826850684330822e+00
8.520000000000000000e+02 4.146368893590558713e+00
8.530000000000000000e+02 4.532416661895918075e+00
8.540000000000000000e+02 6.090631420987135058e+00
8.550000000000000000e+02 3.528352624559238926e+00
8.560000000000000000e+02 4.510072180460467983e+00
8.570000000000000000e+02 5.035924300290332667e+00
8.580000000000000000e+02 4.562009297033803534e+00
8.590000000000000000e+02 3.150135304293688598e+00
8.600000000000000000e+02 2.036767349720052245e+00
8.610000000000000000e+02 4.039457721841913873e+00
8.620000000000000000e+02 2.192251082970321008e+00
8.630000000000000000e+02 9.364753862268894169e-01
8.640000000000000000e+02 1.146642704003342006e+00
8.650000000000000000e+02 9.058576913503466610e-01
8.660000000000000000e+02 1.280766170504012980e+00
8.670000000000000000e+02 4.176069796585933913e-01
8.680000000000000000e+02 1.164598129848579244e+00
8.690000000000000000e+02 5.986213880937646392e-01
8.700000000000000000e+02 4.054666913503408021e-01
8.710000000000000000e+02 1.525073393486828521e-01
8.720000000000000000e+02 2.110889531217576831e-01
8.730000000000000000e+02 6.621384857913331645e-01
8.740000000000000000e+02 8.266048712152662681e-01
8.750000000000000000e+02 4.569546807716414194e-01
8.760000000000000000e+02 2.110639250985272941e+00
8.770000000000000000e+02 2.756164250933224036e+00
8.780000000000000000e+02 4.181044646338870074e-01
8.790000000000000000e+02 1.342436047293082968e+00
8.800000000000000000e+02 1.989318547283284833e+00
8.810000000000000000e+02 1.698880421074467018e+00
8.820000000000000000e+02 2.076232014934661141e+00
8.830000000000000000e+02 2.073102614682704736e+00
8.840000000000000000e+02 2.885362344119474898e+00
8.850000000000000000e+02 4.965857878448432849e+00
8.860000000000000000e+02 3.593732956242214449e+00
8.870000000000000000e+02 3.433039503422527172e+00
8.880000000000000000e+02 3.339094236465463439e+00
8.890000000000000000e+02 3.427189190416925602e+00
8.900000000000000000e+02 5.258971183779275194e+00
8.910000000000000000e+02 6.413735772868670360e+00
8.920000000000000000e+02 4.360020800248912920e+00
8.930000000000000000e+02 5.406744292470420987e+00
8.940000000000000000e+02 5.176566716448895988e+00
8.950000000000000000e+02 5.144469099356974162e+00
8.960000000000000000e+02 5.985603120099545649e+00
8.970000000000000000e+02 6.095229571250793121e+00
8.980000000000000000e+02 4.910142924082156135e+00
8.990000000000000000e+02 3.589283797137549747e+00
9.000000000000000000e+02 2.838321223558681883e+00
9.010000000000000000e+02 3.322703167600081553e+00
9.020000000000000000e+02 3.121467583696329040e+00
9.030000000000000000e+02 4.349340705516321570e+00
9.040000000000000000e+02 4.652882343497152462e+00
9.050000000000000000e+02 3.313017401991301014e+00
9.060000000000000000e+02 3.922003839070945297e+00
9.070000000000000000e+02 3.016605222153081911e+00
9.080000000000000000e+02 4.176564654013639633e+00
9.090000000000000000e+02 5.469489626088746448e+00
9.100000000000000000e+02 2.945838861232232819e+00
9.110000000000000000e+02 7.048651194773246642e-01
9.120000000000000000e+02 1.384786720862675402e+00
9.130000000000000000e+02 3.259656725782982711e+00
9.140000000000000000e+02 3.974867755652361723e+00
9.150000000000000000e+02 3.626728998133173842e+00
9.160000000000000000e+02 3.092096828873680092e+00
9.170000000000000000e+02 3.182436706492427714e+00
9.180000000000000000e+02 2.892734439742787433e+00
9.190000000000000000e+02 3.910033172163474902e+00
9.200000000000000000e+02 5.549663682016184652e+00
9.210000000000000000e+02 5.382366930304883113e+00
9.220000000000000000e+02 3.983504730346353995e+00
9.230000000000000000e+02 2.787367110557967820e+00
9.240000000000000000e+02 4.214432268823828487e+00
9.250000000000000000e+02 3.996268157436264623e+00
9.260000000000000000e+02 3.186463497614568041e+00
9.270000000000000000e+02 3.105652292677864246e+00
9.280000000000000000e+02 2.491373325036386532e+00
9.290000000000000000e+02 1.360482184570665387e+00
9.300000000000000000e+02 2.371905799004364379e+00
9.310000000000000000e+02 1.352039069280253969e+00
9.320000000000000000e+02 5.256359995852361022e-01
9.330000000000000000e+02 1.558741775980092115e+00
9.340000000000000000e+02 1.043586951462347479e+00
9.350000000000000000e+02 1.356687320199128077e+00
9.360000000000000000e+02 1.775976076540102921e+00
9.370000000000000000e+02 6.923125129641168884e-01
9.380000000000000000e+02 1.340835382828711619e+00
9.390000000000000000e+02 2.140276583695766011e-01
9.400000000000000000e+02 1.972350447168479820e-02
9.410000000000000000e+02 2.994277139597134041e-01
9.420000000000000000e+02 1.998666349305054935e+00
9.430000000000000000e+02 1.467769523957549449e+00
9.440000000000000000e+02 2.348520130678070639e-01
9.450000000000000000e+02 6.985500896080027999e-01
9.460000000000000000e+02 6.222110977218950900e-01
9.470000000000000000e+02 2.167510226716447441e+00
9.480000000000000000e+02 5.414414169259536003e-01
9.490000000000000000e+02 1.649677538477484440e+00
9.500000000000000000e+02 2.300594946484125991e+00
9.510000000000000000e+02 2.072021995229204716e+00
9.520000000000000000e+02 1.443538886745468153e+00
9.530000000000000000e+02 1.037579121966409001e+00
9.540000000000000000e+02 2.509364501763138744e+00
9.550000000000000000e+02 2.912001335338060048e+00
9.560000000000000000e+02 3.345638209500014337e+00
9.570000000000000000e+02 4.777079813317097745e-01
9.580000000000000000e+02 9.551056312734160780e-01
9.590000000000000000e+02 2.195487455922023212e+00
9.600000000000000000e+02 1.921448699025098517e+00
9.610000000000000000e+02 1.788658132724999517e+00
9.620000000000000000e+02 1.296029736776608488e+00
9.630000000000000000e+02 9.568739305123404870e-01
9.640000000000000000e+02 2.206629355039412932e+00
9.650000000000000000e+02 2.923319298693221491e+00
9.660000000000000000e+02 1.470762108276266300e+00
9.670000000000000000e+02 1.086705729780186980e+00
9.680000000000000000e+02 1.781656501140855831e+00
9.690000000000000000e+02 2.329234120306999500e+00
9.700000000000000000e+02 2.232421734494860033e+00
9.710000000000000000e+02 1.026573187305550583e+00
9.720000000000000000e+02 1.643433605268601383e+00
9.730000000000000000e+02 5.811916484132422234e-01
9.740000000000000000e+02 4.452166467537982397e-01
9.750000000000000000e+02 2.148147324206515218e-01
9.760000000000000000e+02 1.144528529558141328e+00
9.770000000000000000e+02 1.542423267164512612e+00
9.780000000000000000e+02 9.383306120721565668e-02
9.790000000000000000e+02 2.479751142916418738e-01
9.800000000000000000e+02 2.551183117610457685e-01
9.810000000000000000e+02 7.681379112401496290e-01
9.820000000000000000e+02 9.268999213692830086e-01
9.830000000000000000e+02 1.768769738174634787e-01
9.840000000000000000e+02 1.068602275668941282e+00
9.850000000000000000e+02 2.006673767268206898e+00
9.860000000000000000e+02 1.041245704210739920e+00
9.870000000000000000e+02 2.877540903345697232e-01
9.880000000000000000e+02 1.456971461729927420e+00
9.890000000000000000e+02 9.445747405102677963e-01
9.900000000000000000e+02 1.796668073428737245e+00
9.910000000000000000e+02 1.942645407591792939e+00
9.920000000000000000e+02 5.587244038581317129e-01
9.930000000000000000e+02 9.683847753577820017e-01
9.940000000000000000e+02 1.590044620074682058e+00
9.950000000000000000e+02 1.343234122381247175e+00
9.960000000000000000e+02 2.182678117403029638e+00
9.970000000000000000e+02 1.119817658041130537e+00
9.980000000000000000e+02 1.221345004355945729e+00
9.990000000000000000e+02 1.369950618129044617e+00
1.000000000000000000e+03 6.763598988997068240e-01
1.001000000000000000e+03 5.938566265560236701e-01
1.002000000000000000e+03 4.793810373444300499e-01
1.003000000000000000e+03 5.492070871369072460e-01
1.004000000000000000e+03 1.099534298755201256e+00
1.005000000000000000e+03 1.632204999999969652e-01
1.006000000000000000e+03 4.268950352697092887e-01
1.007000000000000000e+03 1.088235912863041666e+00
1.008000000000000000e+03 1.220791234439834838e+00
1.009000000000000000e+03 1.419477485477161460e+00
1.010000000000000000e+03 2.755394643153545431e+00
1.011000000000000000e+03 1.740954639004211213e+00
1.012000000000000000e+03 5.730412448132932157e-01
1.013000000000000000e+03 2.091666857142856717e+00
1.014000000000000000e+03 8.497027385892501616e-01
1.015000000000000000e+03 1.629840399771660120e-01
1.016000000000000000e+03 6.174179604772478402e-02
1.017000000000000000e+03 8.413640910972677300e-01
1.018000000000000000e+03 1.805853356846472302e+00
1.019000000000000000e+03 9.782409211618920963e-01
1.020000000000000000e+03 3.671963195020775395e-01
1.021000000000000000e+03 6.900414178161296160e-03
1.022000000000000000e+03 1.696960404564332947e+00
1.023000000000000000e+03 1.987727008298769693e+00
1.024000000000000000e+03 1.582652852697126411e+00
1.025000000000000000e+03 3.559787314699791150e+00
1.026000000000000000e+03 2.822948078838073638e+00
1.027000000000000000e+03 1.835306946058137489e+00
1.028000000000000000e+03 2.040040908713668166e+00
1.029000000000000000e+03 2.637867336099597004e+00
1.030000000000000000e+03 4.034324672199055328e+00
1.031000000000000000e+03 4.638087417012537017e+00
1.032000000000000000e+03 2.302594417012441053e+00
1.033000000000000000e+03 2.664128128630722347e+00
1.034000000000000000e+03 1.532212925311295715e+00
1.035000000000000000e+03 2.259065045643144476e+00
1.036000000000000000e+03 2.151619759336124815e+00
1.037000000000000000e+03 3.869486428571555336e+00
1.038000000000000000e+03 3.239416506224217951e+00
1.039000000000000000e+03 2.013133958506268861e+00
1.040000000000000000e+03 2.997558684647142258e+00
1.041000000000000000e+03 1.619513029045641650e+00
1.042000000000000000e+03 2.180249782608690179e+00
1.043000000000000000e+03 2.169083975103715645e+00
1.044000000000000000e+03 1.611501273858944705e+00
1.045000000000000000e+03 1.428856813278000404e+00
1.046000000000000000e+03 2.912561714285786252e+00
1.047000000000000000e+03 3.900508616182605692e+00
1.048000000000000000e+03 3.666329713692977776e+00
1.049000000000000000e+03 3.907389145228200800e+00
1.050000000000000000e+03 4.482879049792343196e+00
1.051000000000000000e+03 2.414294041493818987e+00
1.052000000000000000e+03 2.789964165975050925e+00
1.053000000000000000e+03 5.154228850622491365e+00
1.054000000000000000e+03 8.117949231884050931e+00
1.055000000000000000e+03 4.790994091286606249e+00
1.056000000000000000e+03 4.621305143153545458e+00
1.057000000000000000e+03 6.273324831950167102e+00
1.058000000000000000e+03 5.837698317427394201e+00
1.059000000000000000e+03 5.853892004149379602e+00
1.060000000000000000e+03 6.655185510373518909e+00
1.061000000000000000e+03 1.008360543568496936e+01
1.062000000000000000e+03 1.031666503105591381e+01
1.063000000000000000e+03 1.018678207468880714e+01
1.064000000000000000e+03 1.111362317427395396e+01
1.065000000000000000e+03 1.202002746887956519e+01
1.066000000000000000e+03 1.458628428571421587e+01
1.067000000000000000e+03 1.741403875518679811e+01
1.068000000000000000e+03 1.936916858921163609e+01
1.069000000000000000e+03 2.268421983402470232e+01
1.070000000000000000e+03 2.679773937759340541e+01
1.071000000000000000e+03 3.045878142857175774e+01
1.072000000000000000e+03 3.452158116182540226e+01
1.073000000000000000e+03 4.000901226141071731e+01
1.074000000000000000e+03 4.573227769709571788e+01
1.075000000000000000e+03 5.288819668049713130e+01
1.076000000000000000e+03 6.155286867219884073e+01
1.077000000000000000e+03 7.181259369294636485e+01
1.078000000000000000e+03 8.483714813278143652e+01
1.079000000000000000e+03 9.979152406638930017e+01
1.080000000000000000e+03 1.130020649377593855e+02
1.081000000000000000e+03 1.262339128630710121e+02
1.082000000000000000e+03 1.255785423236514333e+02
1.083000000000000000e+03 1.181364217391307392e+02
1.084000000000000000e+03 9.984390904564219227e+01
1.085000000000000000e+03 7.580200468879421294e+01
1.086000000000000000e+03 5.655364145228317341e+01
1.087000000000000000e+03 4.373879738589216970e+01
1.088000000000000000e+03 3.396421033194948791e+01
1.089000000000000000e+03 2.582592280083062164e+01
1.090000000000000000e+03 1.882894456431536412e+01
1.091000000000000000e+03 1.849316682572603554e+01
1.092000000000000000e+03 1.400801560165954918e+01
1.093000000000000000e+03 1.197373717842326357e+01
1.094000000000000000e+03 1.197450863070539562e+01
1.095000000000000000e+03 1.079350107883802323e+01
1.096000000000000000e+03 9.058827769709633770e+00
1.097000000000000000e+03 7.798617697095452606e+00
1.098000000000000000e+03 7.029943547717834029e+00
1.099000000000000000e+03 7.037285684647316408e+00
1.100000000000000000e+03 6.342563049689477594e+00
1.101000000000000000e+03 4.791704477178385879e+00
1.102000000000000000e+03 3.815933560166096861e+00
1.103000000000000000e+03 6.047841688796710358e+00
1.104000000000000000e+03 3.910297378882036767e+00
1.105000000000000000e+03 3.360133726141167010e+00
1.106000000000000000e+03 3.481082365145359958e+00
1.107000000000000000e+03 3.306668572614044788e+00
1.108000000000000000e+03 4.061679962732914539e+00
1.109000000000000000e+03 3.288278049792559443e+00
1.110000000000000000e+03 1.835811609958593049e+00
1.111000000000000000e+03 1.207494120331948917e+00
1.112000000000000000e+03 2.772651434782711366e+00
1.113000000000000000e+03 2.701712665975167571e+00
1.114000000000000000e+03 1.552113867219953480e+00
1.115000000000000000e+03 3.403247282157294551e-01
1.116000000000000000e+03 6.928472688200489060e-02
1.117000000000000000e+03 8.307207983817763153e-02
1.118000000000000000e+03 2.822919128630805297e-01
1.119000000000000000e+03 1.280855199170188419e+00
1.120000000000000000e+03 1.476376659751174270e+00
1.121000000000000000e+03 1.765767332074737739e-01
1.122000000000000000e+03 8.898985841701981259e-02
1.123000000000000000e+03 6.660757634854697073e-01
1.124000000000000000e+03 6.838041141077810803e-01
1.125000000000000000e+03 3.163890207468583182e-01
1.126000000000000000e+03 1.718753883817711214e+00
1.127000000000000000e+03 1.330095199170332476e+00
1.128000000000000000e+03 3.048573402489563877e-01
1.129000000000000000e+03 8.615447411830506885e-02
1.130000000000000000e+03 4.111004398340291077e-01
1.131000000000000000e+03 5.601778487116751970e-01
1.132000000000000000e+03 8.095738672199219721e-01
1.133000000000000000e+03 5.685344409937809207e-01
1.134000000000000000e+03 1.401686443817183325e-01
1.135000000000000000e+03 7.295280954356782033e-01
1.136000000000000000e+03 2.326350746888073306e+00
1.137000000000000000e+03 3.592015086956515280e+00
1.138000000000000000e+03 3.835808817427388107e+00
1.139000000000000000e+03 3.064063307053892515e+00
1.140000000000000000e+03 3.039411031120460738e+00
1.141000000000000000e+03 4.705779999999980312e+00
1.142000000000000000e+03 3.611249950207462867e+00
1.143000000000000000e+03 5.615724427386037831e+00
1.144000000000000000e+03 7.455175327800745322e+00
1.145000000000000000e+03 7.927251217391262372e+00
1.146000000000000000e+03 9.880734676348646772e+00
1.147000000000000000e+03 1.112367236514524649e+01
1.148000000000000000e+03 1.248919396265548265e+01
1.149000000000000000e+03 1.384516499999999972e+01
1.150000000000000000e+03 1.639340099585101029e+01
1.151000000000000000e+03 2.049700676348523842e+01
1.152000000000000000e+03 2.248194087136926456e+01
1.153000000000000000e+03 2.483451489626570918e+01
1.154000000000000000e+03 3.152134730290411113e+01
1.155000000000000000e+03 3.445241406638993453e+01
1.156000000000000000e+03 3.831853273858929043e+01
1.157000000000000000e+03 4.390231931677042354e+01
1.158000000000000000e+03 4.661632850622395807e+01
1.159000000000000000e+03 4.863518755186720455e+01
1.160000000000000000e+03 4.824785107883800350e+01
1.161000000000000000e+03 4.507222863070532526e+01
1.162000000000000000e+03 4.044796014492784764e+01
1.163000000000000000e+03 3.308316838174251728e+01
1.164000000000000000e+03 2.719357912863035054e+01
1.165000000000000000e+03 2.394791311203350048e+01
1.166000000000000000e+03 1.780758614906831383e+01
1.167000000000000000e+03 1.422991497925292492e+01
1.168000000000000000e+03 1.199917585062256542e+01
1.169000000000000000e+03 1.009475315352704428e+01
1.170000000000000000e+03 7.751593473028936643e+00
1.171000000000000000e+03 5.571568145228089186e+00
1.172000000000000000e+03 4.141660981327859758e+00
1.173000000000000000e+03 3.766959271784231955e+00
1.174000000000000000e+03 3.238645465838294601e+00
1.175000000000000000e+03 1.322230439833953053e+00
1.176000000000000000e+03 2.742040734439808336e+00
1.177000000000000000e+03 3.227297825726151981e+00
1.178000000000000000e+03 3.255692622406589631e+00
1.179000000000000000e+03 8.214502946059250021e-01
1.180000000000000000e+03 8.785482385892298129e-01
1.181000000000000000e+03 3.771821147303182187e+00
1.182000000000000000e+03 1.280186078838605468e+00
1.183000000000000000e+03 3.846682948379170214e-02
1.184000000000000000e+03 1.684575900414879257e+00
1.185000000000000000e+03 5.757310373443170759e-01
1.186000000000000000e+03 1.616336990372199411e-01
1.187000000000000000e+03 1.263159813278040611e+00
1.188000000000000000e+03 1.921159116182546756e+00
1.189000000000000000e+03 1.492205107883787685e+00
1.190000000000000000e+03 2.568196373443974778e+00
1.191000000000000000e+03 1.530494906832204238e+00
1.192000000000000000e+03 1.083680070539416063e+00
1.193000000000000000e+03 1.108556045643155574e+00
1.194000000000000000e+03 7.579678630705286579e-01
1.195000000000000000e+03 4.839658426501532995e-01
1.196000000000000000e+03 8.855245228216043207e-01
1.197000000000000000e+03 4.136978506224039398e-01
1.198000000000000000e+03 1.376249850622397242e+00
1.199000000000000000e+03 1.385828136929399212e+00
1.200000000000000000e+03 1.849794950207485300e+00
1.201000000000000000e+03 8.869293029045316468e-01
1.202000000000000000e+03 2.169640576596880699e-01
1.203000000000000000e+03 6.813807971014389508e-01
1.204000000000000000e+03 9.778328962655941092e-01
1.205000000000000000e+03 2.479918093361050957e+00
1.206000000000000000e+03 2.449274329875537504e+00
1.207000000000000000e+03 1.697649495850651169e+00
1.208000000000000000e+03 1.398134423236521373e+00
1.209000000000000000e+03 1.601538593360998908e+00
1.210000000000000000e+03 1.897042153526886210e+00
1.211000000000000000e+03 2.947037981366458670e+00
1.212000000000000000e+03 2.697468226141047865e+00
1.213000000000000000e+03 2.782961699170003467e+00
1.214000000000000000e+03 4.566639014522799300e+00
1.215000000000000000e+03 4.885493215320867222e+00
1.216000000000000000e+03 3.283161917012414222e+00
1.217000000000000000e+03 2.795047597510353476e+00
1.218000000000000000e+03 4.162615016597548845e+00
1.219000000000000000e+03 5.182972659751060363e+00
1.220000000000000000e+03 5.099717236024868150e+00
1.221000000000000000e+03 5.827304489626550676e+00
1.222000000000000000e+03 6.847535101659750545e+00
1.223000000000000000e+03 6.182921655601689714e+00
1.224000000000000000e+03 6.869339792531114597e+00
1.225000000000000000e+03 7.275957493775973894e+00
1.226000000000000000e+03 8.729039439834139102e+00
1.227000000000000000e+03 1.079157124481329255e+01
1.228000000000000000e+03 8.779399902489609886e+00
1.229000000000000000e+03 9.599884105809266543e+00
1.230000000000000000e+03 1.000240449170131996e+01
1.231000000000000000e+03 8.404030547717912469e+00
1.232000000000000000e+03 8.060597836438969210e+00
1.233000000000000000e+03 8.399497556016612521e+00
1.234000000000000000e+03 8.556825473028998985e+00
1.235000000000000000e+03 8.893346203319500987e+00
1.236000000000000000e+03 7.860144746887889333e+00
1.237000000000000000e+03 6.211638010373600416e+00
1.238000000000000000e+03 4.786291701244787866e+00
1.239000000000000000e+03 6.200277014522852070e+00
1.240000000000000000e+03 6.122764037266968273e+00
1.241000000000000000e+03 3.338440157676372699e+00
1.242000000000000000e+03 5.580956697095496466e+00
1.243000000000000000e+03 5.255504858920959421e+00
1.244000000000000000e+03 3.619350813664659494e+00
1.245000000000000000e+03 3.633814813278005484e+00
1.246000000000000000e+03 3.962568103734440239e+00
1.247000000000000000e+03 2.680103020747034215e+00
1.248000000000000000e+03 1.661181780082978454e+00
1.249000000000000000e+03 2.927025354037309235e+00
1.250000000000000000e+03 4.186282995850743482e+00
1.251000000000000000e+03 5.049331946058240206e+00
1.252000000000000000e+03 3.354949352697095044e+00
1.253000000000000000e+03 3.796136690871365627e+00
1.254000000000000000e+03 3.417569207468911241e+00
1.255000000000000000e+03 3.403913161825720124e+00
1.256000000000000000e+03 3.562911763485473227e+00
1.257000000000000000e+03 2.708427228215775084e+00
1.258000000000000000e+03 3.386429684647197735e+00
1.259000000000000000e+03 3.285328207468874329e+00
1.260000000000000000e+03 3.210746825726239706e+00
1.261000000000000000e+03 4.567754198757721262e+00
1.262000000000000000e+03 4.157248821576793318e+00
1.263000000000000000e+03 2.307128798755127441e+00
1.264000000000000000e+03 2.087128603734468957e+00
1.265000000000000000e+03 2.841326422360102910e+00
1.266000000000000000e+03 4.471410182572572722e+00
1.267000000000000000e+03 1.793417024896202028e+00
1.268000000000000000e+03 2.685372448132715029e+00
1.269000000000000000e+03 2.392582229813669414e+00
1.270000000000000000e+03 3.337170767634930257e+00
1.271000000000000000e+03 2.680192275933625190e+00
1.272000000000000000e+03 2.593883630705335896e+00
1.273000000000000000e+03 3.474581165631487334e+00
1.274000000000000000e+03 2.625980464730106156e+00
1.275000000000000000e+03 3.897487510375077235e-01
1.276000000000000000e+03 3.913133609958704406e-01
1.277000000000000000e+03 3.245730614108053302e+00
1.278000000000000000e+03 4.935632952282422714e+00
1.279000000000000000e+03 2.391673904564346476e+00
1.280000000000000000e+03 2.359651365145272628e+00
1.281000000000000000e+03 3.935020240663801072e+00
1.282000000000000000e+03 1.700114552795143785e+00
1.283000000000000000e+03 1.330466120331948554e+00
1.284000000000000000e+03 1.907245423236563431e+00
1.285000000000000000e+03 1.989798489626560141e+00
1.286000000000000000e+03 1.945680364389230421e+00
1.287000000000000000e+03 2.073386778008312614e+00
1.288000000000000000e+03 1.607116165975003952e+00
1.289000000000000000e+03 4.814792406639784583e-01
1.290000000000000000e+03 4.748240165627654746e-04
1.291000000000000000e+03 0.000000000000000000e+00
1.292000000000000000e+03 0.000000000000000000e+00
1.293000000000000000e+03 0.000000000000000000e+00
1.294000000000000000e+03 0.000000000000000000e+00
1.295000000000000000e+03 0.000000000000000000e+00
1.296000000000000000e+03 0.000000000000000000e+00
1.297000000000000000e+03 0.000000000000000000e+00
1.298000000000000000e+03 0.000000000000000000e+00
1.299000000000000000e+03 0.000000000000000000e+00
1.300000000000000000e+03 0.000000000000000000e+00
1.301000000000000000e+03 0.000000000000000000e+00
1.302000000000000000e+03 0.000000000000000000e+00
1.303000000000000000e+03 0.000000000000000000e+00
1.304000000000000000e+03 0.000000000000000000e+00
1.305000000000000000e+03 0.000000000000000000e+00
1.306000000000000000e+03 0.000000000000000000e+00
1.307000000000000000e+03 0.000000000000000000e+00
1.308000000000000000e+03 0.000000000000000000e+00
1.309000000000000000e+03 0.000000000000000000e+00
1.310000000000000000e+03 0.000000000000000000e+00
1.311000000000000000e+03 0.000000000000000000e+00
1.312000000000000000e+03 0.000000000000000000e+00
1.313000000000000000e+03 0.000000000000000000e+00
1.314000000000000000e+03 0.000000000000000000e+00
1.315000000000000000e+03 0.000000000000000000e+00
1.316000000000000000e+03 0.000000000000000000e+00
1.317000000000000000e+03 0.000000000000000000e+00
1.318000000000000000e+03 0.000000000000000000e+00
1.319000000000000000e+03 0.000000000000000000e+00
1.320000000000000000e+03 0.000000000000000000e+00
1.321000000000000000e+03 0.000000000000000000e+00
1.322000000000000000e+03 0.000000000000000000e+00
1.323000000000000000e+03 0.000000000000000000e+00
1.324000000000000000e+03 0.000000000000000000e+00
1.325000000000000000e+03 0.000000000000000000e+00
1.326000000000000000e+03 0.000000000000000000e+00
1.327000000000000000e+03 0.000000000000000000e+00
1.328000000000000000e+03 0.000000000000000000e+00
1.329000000000000000e+03 0.000000000000000000e+00
1.330000000000000000e+03 0.000000000000000000e+00
1.331000000000000000e+03 0.000000000000000000e+00
1.332000000000000000e+03 0.000000000000000000e+00
1.333000000000000000e+03 0.000000000000000000e+00
1.334000000000000000e+03 0.000000000000000000e+00
1.335000000000000000e+03 0.000000000000000000e+00
1.336000000000000000e+03 0.000000000000000000e+00
1.337000000000000000e+03 0.000000000000000000e+00
1.338000000000000000e+03 0.000000000000000000e+00
1.339000000000000000e+03 0.000000000000000000e+00
1.340000000000000000e+03 0.000000000000000000e+00
1.341000000000000000e+03 0.000000000000000000e+00
1.342000000000000000e+03 0.000000000000000000e+00
1.343000000000000000e+03 0.000000000000000000e+00
1.344000000000000000e+03 0.000000000000000000e+00
1.345000000000000000e+03 0.000000000000000000e+00
1.346000000000000000e+03 0.000000000000000000e+00
1.347000000000000000e+03 0.000000000000000000e+00
1.348000000000000000e+03 0.000000000000000000e+00
1.349000000000000000e+03 0.000000000000000000e+00
1.350000000000000000e+03 0.000000000000000000e+00
1.351000000000000000e+03 0.000000000000000000e+00
1.352000000000000000e+03 0.000000000000000000e+00
1.353000000000000000e+03 0.000000000000000000e+00
1.354000000000000000e+03 0.000000000000000000e+00
1.355000000000000000e+03 0.000000000000000000e+00
1.356000000000000000e+03 0.000000000000000000e+00
1.357000000000000000e+03 0.000000000000000000e+00
1.358000000000000000e+03 0.000000000000000000e+00
1.359000000000000000e+03 0.000000000000000000e+00
1.360000000000000000e+03 0.000000000000000000e+00
1.361000000000000000e+03 0.000000000000000000e+00
1.362000000000000000e+03 0.000000000000000000e+00
1.363000000000000000e+03 0.000000000000000000e+00
1.364000000000000000e+03 0.000000000000000000e+00
1.365000000000000000e+03 0.000000000000000000e+00
1.366000000000000000e+03 0.000000000000000000e+00
1.367000000000000000e+03 0.000000000000000000e+00
1.368000000000000000e+03 0.000000000000000000e+00
1.369000000000000000e+03 0.000000000000000000e+00
1.370000000000000000e+03 0.000000000000000000e+00
1.371000000000000000e+03 0.000000000000000000e+00
1.372000000000000000e+03 0.000000000000000000e+00
1.373000000000000000e+03 0.000000000000000000e+00
1.374000000000000000e+03 0.000000000000000000e+00
1.375000000000000000e+03 0.000000000000000000e+00
1.376000000000000000e+03 0.000000000000000000e+00
1.377000000000000000e+03 0.000000000000000000e+00
1.378000000000000000e+03 0.000000000000000000e+00
1.379000000000000000e+03 0.000000000000000000e+00
1.380000000000000000e+03 0.000000000000000000e+00
1.381000000000000000e+03 0.000000000000000000e+00
1.382000000000000000e+03 0.000000000000000000e+00
1.383000000000000000e+03 0.000000000000000000e+00
1.384000000000000000e+03 0.000000000000000000e+00
1.385000000000000000e+03 0.000000000000000000e+00
1.386000000000000000e+03 0.000000000000000000e+00
1.387000000000000000e+03 0.000000000000000000e+00
1.388000000000000000e+03 0.000000000000000000e+00
1.389000000000000000e+03 0.000000000000000000e+00
1.390000000000000000e+03 0.000000000000000000e+00
1.391000000000000000e+03 0.000000000000000000e+00
1.392000000000000000e+03 0.000000000000000000e+00
1.393000000000000000e+03 0.000000000000000000e+00
1.394000000000000000e+03 0.000000000000000000e+00
1.395000000000000000e+03 0.000000000000000000e+00
1.396000000000000000e+03 0.000000000000000000e+00
1.397000000000000000e+03 0.000000000000000000e+00
1.398000000000000000e+03 0.000000000000000000e+00
1.399000000000000000e+03 0.000000000000000000e+00
1.400000000000000000e+03 0.000000000000000000e+00
1.401000000000000000e+03 0.000000000000000000e+00
1.402000000000000000e+03 0.000000000000000000e+00
1.403000000000000000e+03 0.000000000000000000e+00
1.404000000000000000e+03 0.000000000000000000e+00
1.405000000000000000e+03 0.000000000000000000e+00
1.406000000000000000e+03 0.000000000000000000e+00
1.407000000000000000e+03 0.000000000000000000e+00
1.408000000000000000e+03 0.000000000000000000e+00
1.409000000000000000e+03 0.000000000000000000e+00
1.410000000000000000e+03 0.000000000000000000e+00
1.411000000000000000e+03 0.000000000000000000e+00
1.412000000000000000e+03 0.000000000000000000e+00
1.413000000000000000e+03 0.000000000000000000e+00
1.414000000000000000e+03 0.000000000000000000e+00
1.415000000000000000e+03 0.000000000000000000e+00
1.416000000000000000e+03 0.000000000000000000e+00
1.417000000000000000e+03 0.000000000000000000e+00
1.418000000000000000e+03 0.000000000000000000e+00
1.419000000000000000e+03 0.000000000000000000e+00
1.420000000000000000e+03 0.000000000000000000e+00
1.421000000000000000e+03 0.000000000000000000e+00
1.422000000000000000e+03 0.000000000000000000e+00
1.423000000000000000e+03 0.000000000000000000e+00
1.424000000000000000e+03 0.000000000000000000e+00
1.425000000000000000e+03 0.000000000000000000e+00
1.426000000000000000e+03 0.000000000000000000e+00
1.427000000000000000e+03 0.000000000000000000e+00
1.428000000000000000e+03 0.000000000000000000e+00
1.429000000000000000e+03 0.000000000000000000e+00
1.430000000000000000e+03 0.000000000000000000e+00
1.431000000000000000e+03 0.000000000000000000e+00
1.432000000000000000e+03 0.000000000000000000e+00
1.433000000000000000e+03 0.000000000000000000e+00
1.434000000000000000e+03 0.000000000000000000e+00
1.435000000000000000e+03 0.000000000000000000e+00
1.436000000000000000e+03 0.000000000000000000e+00
1.437000000000000000e+03 0.000000000000000000e+00
1.438000000000000000e+03 0.000000000000000000e+00
1.439000000000000000e+03 0.000000000000000000e+00
1.440000000000000000e+03 0.000000000000000000e+00
1.441000000000000000e+03 0.000000000000000000e+00
1.442000000000000000e+03 0.000000000000000000e+00
1.443000000000000000e+03 0.000000000000000000e+00
1.444000000000000000e+03 0.000000000000000000e+00
1.445000000000000000e+03 0.000000000000000000e+00
1.446000000000000000e+03 0.000000000000000000e+00
1.447000000000000000e+03 0.000000000000000000e+00
1.448000000000000000e+03 0.000000000000000000e+00
1.449000000000000000e+03 0.000000000000000000e+00
1.450000000000000000e+03 0.000000000000000000e+00
1.451000000000000000e+03 0.000000000000000000e+00
1.452000000000000000e+03 0.000000000000000000e+00
1.453000000000000000e+03 0.000000000000000000e+00
1.454000000000000000e+03 0.000000000000000000e+00
1.455000000000000000e+03 0.000000000000000000e+00
1.456000000000000000e+03 0.000000000000000000e+00
1.457000000000000000e+03 0.000000000000000000e+00
1.458000000000000000e+03 0.000000000000000000e+00
1.459000000000000000e+03 0.000000000000000000e+00
1.460000000000000000e+03 0.000000000000000000e+00
1.461000000000000000e+03 0.000000000000000000e+00
1.462000000000000000e+03 0.000000000000000000e+00
1.463000000000000000e+03 0.000000000000000000e+00
1.464000000000000000e+03 0.000000000000000000e+00
1.465000000000000000e+03 0.000000000000000000e+00
1.466000000000000000e+03 0.000000000000000000e+00
1.467000000000000000e+03 0.000000000000000000e+00
1.468000000000000000e+03 0.000000000000000000e+00
1.469000000000000000e+03 0.000000000000000000e+00
1.470000000000000000e+03 0.000000000000000000e+00
1.471000000000000000e+03 0.000000000000000000e+00
1.472000000000000000e+03 0.000000000000000000e+00
1.473000000000000000e+03 0.000000000000000000e+00
1.474000000000000000e+03 0.000000000000000000e+00
1.475000000000000000e+03 0.000000000000000000e+00
1.476000000000000000e+03 0.000000000000000000e+00
1.477000000000000000e+03 0.000000000000000000e+00
1.478000000000000000e+03 0.000000000000000000e+00
1.479000000000000000e+03 0.000000000000000000e+00
1.480000000000000000e+03 0.000000000000000000e+00
1.481000000000000000e+03 0.000000000000000000e+00
1.482000000000000000e+03 0.000000000000000000e+00
1.483000000000000000e+03 0.000000000000000000e+00
1.484000000000000000e+03 0.000000000000000000e+00
1.485000000000000000e+03 0.000000000000000000e+00
1.486000000000000000e+03 0.000000000000000000e+00
1.487000000000000000e+03 0.000000000000000000e+00
1.488000000000000000e+03 0.000000000000000000e+00
1.489000000000000000e+03 0.000000000000000000e+00
1.490000000000000000e+03 0.000000000000000000e+00
1.491000000000000000e+03 0.000000000000000000e+00
1.492000000000000000e+03 0.000000000000000000e+00
1.493000000000000000e+03 0.000000000000000000e+00
1.494000000000000000e+03 0.000000000000000000e+00
1.495000000000000000e+03 0.000000000000000000e+00
1.496000000000000000e+03 0.000000000000000000e+00
1.497000000000000000e+03 0.000000000000000000e+00
1.498000000000000000e+03 0.000000000000000000e+00
1.499000000000000000e+03 0.000000000000000000e+00
1.500000000000000000e+03 0.000000000000000000e+00
