1.010000000000000000e+02 0.000000000000000000e+00
1.020000000000000000e+02 0.000000000000000000e+00
1.030000000000000000e+02 0.000000000000000000e+00
1.040000000000000000e+02 0.000000000000000000e+00
1.050000000000000000e+02 0.000000000000000000e+00
1.060000000000000000e+02 0.000000000000000000e+00
1.070000000000000000e+02 0.000000000000000000e+00
1.080000000000000000e+02 0.000000000000000000e+00
1.090000000000000000e+02 0.000000000000000000e+00
1.100000000000000000e+02 0.000000000000000000e+00
1.110000000000000000e+02 0.000000000000000000e+00
1.120000000000000000e+02 0.000000000000000000e+00
1.130000000000000000e+02 0.000000000000000000e+00
1.140000000000000000e+02 0.000000000000000000e+00
1.150000000000000000e+02 0.000000000000000000e+00
1.160000000000000000e+02 0.000000000000000000e+00
1.170000000000000000e+02 0.000000000000000000e+00
1.180000000000000000e+02 0.000000000000000000e+00
1.190000000000000000e+02 0.000000000000000000e+00
1.200000000000000000e+02 0.000000000000000000e+00
1.210000000000000000e+02 0.000000000000000000e+00
1.220000000000000000e+02 0.000000000000000000e+00
1.230000000000000000e+02 0.000000000000000000e+00
1.240000000000000000e+02 0.000000000000000000e+00
1.250000000000000000e+02 0.000000000000000000e+00
1.260000000000000000e+02 0.000000000000000000e+00
1.270000000000000000e+02 0.000000000000000000e+00
1.280000000000000000e+02 0.000000000000000000e+00
1.290000000000000000e+02 0.000000000000000000e+00
1.300000000000000000e+02 0.000000000000000000e+00
1.310000000000000000e+02 0.000000000000000000e+00
1.320000000000000000e+02 0.000000000000000000e+00
1.330000000000000000e+02 0.000000000000000000e+00
1.340000000000000000e+02 0.000000000000000000e+00
1.350000000000000000e+02 0.000000000000000000e+00
1.360000000000000000e+02 0.000000000000000000e+00
1.370000000000000000e+02 0.000000000000000000e+00
1.380000000000000000e+02 0.000000000000000000e+00
1.390000000000000000e+02 0.000000000000000000e+00
1.400000000000000000e+02 0.000000000000000000e+00
1.410000000000000000e+02 0.000000000000000000e+00
1.420000000000000000e+02 0.000000000000000000e+00
1.430000000000000000e+02 0.000000000000000000e+00
1.440000000000000000e+02 0.000000000000000000e+00
1.450000000000000000e+02 0.000000000000000000e+00
1.460000000000000000e+02 0.000000000000000000e+00
1.470000000000000000e+02 0.000000000000000000e+00
1.480000000000000000e+02 0.000000000000000000e+00
1.490000000000000000e+02 0.000000000000000000e+00
1.500000000000000000e+02 0.000000000000000000e+00
1.510000000000000000e+02 6.601811212615752433e-01
1.520000000000000000e+02 2.347644219249117814e+00
1.530000000000000000e+02 1.200572444928458271e+00
1.540000000000000000e+02 5.835675532047316372e-01
1.550000000000000000e+02 1.249838454191258608e+00
1.560000000000000000e+02 6.528558871810815845e+00
1.570000000000000000e+02 1.268663618543866534e+01
1.580000000000000000e+02 1.687924327940265812e+01
1.590000000000000000e+02 1.891627720389962874e+01
1.600000000000000000e+02 2.292205509746993641e+01
1.610000000000000000e+02 3.136938113669353712e+01
1.620000000000000000e+02 4.238282373988796792e+01
1.630000000000000000e+02 4.645684684363340011e+01
1.640000000000000000e+02 5.781664131507987747e+01
1.650000000000000000e+02 6.811479292885290704e+01
1.660000000000000000e+02 7.660878722936524809e+01
1.670000000000000000e+02 9.275162968263862240e+01
1.680000000000000000e+02 1.032424301597179408e+02
1.690000000000000000e+02 1.150770586185438589e+02
1.700000000000000000e+02 1.299636426260110511e+02
1.710000000000000000e+02 1.450943916614811826e+02
1.720000000000000000e+02 1.600851284114476414e+02
1.730000000000000000e+02 1.757852009334162915e+02
1.740000000000000000e+02 1.930682030076746116e+02
1.750000000000000000e+02 2.102952539817502497e+02
1.760000000000000000e+02 2.221865367143747108e+02
1.770000000000000000e+02 2.367825569591371391e+02
1.780000000000000000e+02 2.509460591455826943e+02
1.790000000000000000e+02 2.650910363410079071e+02
1.800000000000000000e+02 2.833580655258247134e+02
1.810000000000000000e+02 2.979900636457902010e+02
1.820000000000000000e+02 3.171689098112424290e+02
1.830000000000000000e+02 3.374365377307610743e+02
1.840000000000000000e+02 3.511665477395272887e+02
1.850000000000000000e+02 3.623124322962041788e+02
1.860000000000000000e+02 3.778333805227131279e+02
1.870000000000000000e+02 3.953170478946275352e+02
1.880000000000000000e+02 4.079850348475418969e+02
1.890000000000000000e+02 4.136503451773490951e+02
1.900000000000000000e+02 4.143788081518356989e+02
1.910000000000000000e+02 4.024415202862477940e+02
1.920000000000000000e+02 3.802652634930515205e+02
1.930000000000000000e+02 3.559588402198711492e+02
1.940000000000000000e+02 3.213110161169880712e+02
1.950000000000000000e+02 2.773251844430616870e+02
1.960000000000000000e+02 2.314284276913508336e+02
1.970000000000000000e+02 1.903662262808541357e+02
1.980000000000000000e+02 1.568052640945859650e+02
1.990000000000000000e+02 1.239886624766646577e+02
2.000000000000000000e+02 9.689272008504475764e+01
2.010000000000000000e+02 7.857427346744100305e+01
2.020000000000000000e+02 6.648647800871179925e+01
2.030000000000000000e+02 4.991510621655257296e+01
2.040000000000000000e+02 3.923808696184158862e+01
2.050000000000000000e+02 3.202375020535158967e+01
2.060000000000000000e+02 2.200656358639278665e+01
2.070000000000000000e+02 1.609065578598091051e+01
2.080000000000000000e+02 9.966396859365309169e+00
2.090000000000000000e+02 5.745004815598448999e+00
2.100000000000000000e+02 3.982016373289081645e+00
2.110000000000000000e+02 1.707420417548218161e+00
2.120000000000000000e+02 1.646798039825783100e-01
2.130000000000000000e+02 2.080176441194745429e+00
2.140000000000000000e+02 3.990724149968887691e+00
2.150000000000000000e+02 3.687888650902294341e+00
2.160000000000000000e+02 2.192249444928440649e+00
2.170000000000000000e+02 7.616647542003786020e-01
2.180000000000000000e+02 2.735008772868621207e+00
2.190000000000000000e+02 7.148294265864802099e+00
2.200000000000000000e+02 6.488103323584315518e+00
2.210000000000000000e+02 3.092183965774749854e+00
2.220000000000000000e+02 3.576663311074194773e+00
2.230000000000000000e+02 5.325116058079233383e+00
2.240000000000000000e+02 2.582670436216541798e+00
2.250000000000000000e+02 2.243784392575693509e+00
2.260000000000000000e+02 4.266671163036702019e+00
2.270000000000000000e+02 3.691947462144710368e+00
2.280000000000000000e+02 1.338844360091268615e-01
2.290000000000000000e+02 9.671562053515866397e-01
2.300000000000000000e+02 4.021091685239449598e-01
2.310000000000000000e+02 3.175104946484117896e+00
2.320000000000000000e+02 4.538424580792352003e+00
2.330000000000000000e+02 2.643935890271726485e+00
2.340000000000000000e+02 4.614157223605044322e+00
2.350000000000000000e+02 6.233381135656492766e+00
2.360000000000000000e+02 8.300740617506775720e+00
2.370000000000000000e+02 1.102127252644679878e+01
2.380000000000000000e+02 1.133135886745488463e+01
2.390000000000000000e+02 1.265219019290602098e+01
2.400000000000000000e+02 1.337173179215930396e+01
2.410000000000000000e+02 1.391447617714168139e+01
2.420000000000000000e+02 1.543508844255495660e+01
2.430000000000000000e+02 1.579906602572078533e+01
2.440000000000000000e+02 2.094102693217172018e+01
2.450000000000000000e+02 2.523036874740771651e+01
2.460000000000000000e+02 2.502045573532462086e+01
2.470000000000000000e+02 2.463796352001658718e+01
2.480000000000000000e+02 3.000679150974702836e+01
2.490000000000000000e+02 3.225715403858119146e+01
2.500000000000000000e+02 3.352910877203900952e+01
2.510000000000000000e+02 3.904109902944833976e+01
2.520000000000000000e+02 4.138679165733248055e+01
2.530000000000000000e+02 4.493464275668953434e+01
2.540000000000000000e+02 4.833386385812072916e+01
2.550000000000000000e+02 5.053657225679319254e+01
2.560000000000000000e+02 5.276865000829698715e+01
2.570000000000000000e+02 6.177070543040873929e+01
2.580000000000000000e+02 6.878017401991290569e+01
2.590000000000000000e+02 7.376560131507986284e+01
2.600000000000000000e+02 7.997175775150395793e+01
2.610000000000000000e+02 8.619257050819344101e+01
2.620000000000000000e+02 9.853666160547618347e+01
2.630000000000000000e+02 1.099655798382075886e+02
2.640000000000000000e+02 1.192735009956442980e+02
2.650000000000000000e+02 1.318366734080069023e+02
2.660000000000000000e+02 1.531171841526649757e+02
2.670000000000000000e+02 1.690466429371496133e+02
2.680000000000000000e+02 1.857227300705106927e+02
2.690000000000000000e+02 2.098833342874919481e+02
2.700000000000000000e+02 2.372399169674336861e+02
2.710000000000000000e+02 2.674130354209867733e+02
2.720000000000000000e+02 2.946687456129433258e+02
2.730000000000000000e+02 3.272745189172367759e+02
2.740000000000000000e+02 3.745218110742431463e+02
2.750000000000000000e+02 4.163254703381044237e+02
2.760000000000000000e+02 4.594158527691350855e+02
2.770000000000000000e+02 5.082041082123608362e+02
2.780000000000000000e+02 5.610852455507164223e+02
2.790000000000000000e+02 6.121626147894633050e+02
2.800000000000000000e+02 6.653249047085653274e+02
2.810000000000000000e+02 7.193370375233367895e+02
2.820000000000000000e+02 7.772158295581841685e+02
2.830000000000000000e+02 8.411923512756676473e+02
2.840000000000000000e+02 9.102212457373972256e+02
2.850000000000000000e+02 9.778458388923455686e+02
2.860000000000000000e+02 1.046922691350341665e+03
2.870000000000000000e+02 1.121934320265503857e+03
2.880000000000000000e+02 1.202996753163242602e+03
2.890000000000000000e+02 1.273453843600912705e+03
2.900000000000000000e+02 1.340416078406969064e+03
2.910000000000000000e+02 1.399150376063056910e+03
2.920000000000000000e+02 1.442263661688446746e+03
2.930000000000000000e+02 1.464836891723708959e+03
2.940000000000000000e+02 1.470554989838241454e+03
2.950000000000000000e+02 1.447279159303048345e+03
2.960000000000000000e+02 1.391445157643641551e+03
2.970000000000000000e+02 1.313560819162173630e+03
2.980000000000000000e+02 1.236167046670813079e+03
2.990000000000000000e+02 1.133890796515243437e+03
3.000000000000000000e+02 1.023719440107839205e+03
3.010000000000000000e+02 9.228825503837399538e+02
3.020000000000000000e+02 8.317283407591777404e+02
3.030000000000000000e+02 7.356688166321029030e+02
3.040000000000000000e+02 6.497023340385824213e+02
3.050000000000000000e+02 5.742350578925548916e+02
3.060000000000000000e+02 5.072287005184571171e+02
3.070000000000000000e+02 4.505379853142504771e+02
3.080000000000000000e+02 3.941796670815189145e+02
3.090000000000000000e+02 3.474009331673923384e+02
3.100000000000000000e+02 3.085323664384981157e+02
3.110000000000000000e+02 2.738924286040241327e+02
3.120000000000000000e+02 2.451656023024264357e+02
3.130000000000000000e+02 2.215473769135031716e+02
3.140000000000000000e+02 1.994227810205350124e+02
3.150000000000000000e+02 1.793258996266330030e+02
3.160000000000000000e+02 1.622363065546563519e+02
3.170000000000000000e+02 1.443875807716238739e+02
3.180000000000000000e+02 1.304229108276294085e+02
3.190000000000000000e+02 1.212827663970132619e+02
3.200000000000000000e+02 1.134150765816218609e+02
3.210000000000000000e+02 1.024406591018461938e+02
3.220000000000000000e+02 9.569195080273816245e+01
3.230000000000000000e+02 8.577225563251782603e+01
3.240000000000000000e+02 7.950892032565857903e+01
3.250000000000000000e+02 7.691459678282524237e+01
3.260000000000000000e+02 6.714056533388638570e+01
3.270000000000000000e+02 6.435729956440572153e+01
3.280000000000000000e+02 6.150586043766853805e+01
3.290000000000000000e+02 5.670227628577348611e+01
3.300000000000000000e+02 5.140425363617500665e+01
3.310000000000000000e+02 4.733383425637832431e+01
3.320000000000000000e+02 4.586548385732059074e+01
3.330000000000000000e+02 4.459390367351169004e+01
3.340000000000000000e+02 4.171612075917850859e+01
3.350000000000000000e+02 3.668835817050413795e+01
3.360000000000000000e+02 3.264990873677666627e+01
3.370000000000000000e+02 2.851621521883419064e+01
3.380000000000000000e+02 2.780329040033184285e+01
3.390000000000000000e+02 2.785285204521891345e+01
3.400000000000000000e+02 2.373313021779718213e+01
3.410000000000000000e+02 2.450839338518979815e+01
3.420000000000000000e+02 2.318172451980919746e+01
3.430000000000000000e+02 2.087597150591166084e+01
3.440000000000000000e+02 1.893257845675176299e+01
3.450000000000000000e+02 1.584362510267579616e+01
3.460000000000000000e+02 1.683196072391618614e+01
3.470000000000000000e+02 1.661894047075903558e+01
3.480000000000000000e+02 1.584072436838830278e+01
3.490000000000000000e+02 1.651788649657747854e+01
3.500000000000000000e+02 1.739836577768559778e+01
3.510000000000000000e+02 1.267992728894412657e+01
3.520000000000000000e+02 1.080286870981125702e+01
3.530000000000000000e+02 1.392065603069261215e+01
3.540000000000000000e+02 1.601367145612932674e+01
3.550000000000000000e+02 9.874483650694790171e+00
3.560000000000000000e+02 1.397084781418493549e+01
3.570000000000000000e+02 1.295117896494516785e+01
3.580000000000000000e+02 9.322495047915358768e+00
3.590000000000000000e+02 1.055105893405225359e+01
3.600000000000000000e+02 1.033159189587223636e+01
3.610000000000000000e+02 7.693640025098567037e+00
3.620000000000000000e+02 6.909748421904168936e+00
3.630000000000000000e+02 7.853000169881761749e+00
3.640000000000000000e+02 8.669034632441396937e+00
3.650000000000000000e+02 8.936667630989418853e+00
3.660000000000000000e+02 7.841269701721629737e+00
3.670000000000000000e+02 5.916917538270074495e+00
3.680000000000000000e+02 5.427156904791577752e+00
3.690000000000000000e+02 7.446540272557570894e+00
3.700000000000000000e+02 5.618578740095399482e+00
3.710000000000000000e+02 1.938750907487966746e+00
3.720000000000000000e+02 1.210010132545145778e+00
3.730000000000000000e+02 3.154406196847154398e+00
3.740000000000000000e+02 4.447033330636799953e+00
3.750000000000000000e+02 4.033885976975741805e+00
3.760000000000000000e+02 3.795430898589787549e+00
3.770000000000000000e+02 2.601023744866243881e+00
3.780000000000000000e+02 9.158211167807566166e-01
3.790000000000000000e+02 1.030149445043544887e+00
3.800000000000000000e+02 1.572436084837165460e+00
3.810000000000000000e+02 3.756449172370849077e+00
3.820000000000000000e+02 2.865450804230612825e+00
3.830000000000000000e+02 5.735935194808194915e-01
3.840000000000000000e+02 7.189056990250988211e-01
3.850000000000000000e+02 4.673100282040628106e-01
3.860000000000000000e+02 1.602342690105807765e+00
3.870000000000000000e+02 1.670435820369210678e+00
3.880000000000000000e+02 3.428920929267779694e-01
3.890000000000000000e+02 5.019084055175353498e-01
3.900000000000000000e+02 8.803494667081575020e-01
3.910000000000000000e+02 1.233752085252016739e+00
3.920000000000000000e+02 1.241136773490979284e+00
3.930000000000000000e+02 1.107991971790091679e+00
3.940000000000000000e+02 1.403596528521050990e+00
3.950000000000000000e+02 1.440230371499692019e+00
3.960000000000000000e+02 7.203728554242090354e-01
3.970000000000000000e+02 6.569187755652312610e-01
3.980000000000000000e+02 1.000480651109731722e+00
3.990000000000000000e+02 3.431211835718671055e-01
4.000000000000000000e+02 7.940657467330431984e-01
4.010000000000000000e+02 1.926753105994605031e+00
4.020000000000000000e+02 1.861905685607646355e+00
4.030000000000000000e+02 1.009898419829913907e+00
4.040000000000000000e+02 3.659619507156212315e+00
4.050000000000000000e+02 4.706326839070922752e+00
4.060000000000000000e+02 4.111710295374379598e+00
4.070000000000000000e+02 2.215696595934403046e+00
4.080000000000000000e+02 8.863667876399774492e-01
4.090000000000000000e+02 3.104522131922792916e+00
4.100000000000000000e+02 3.453327003941083273e+00
4.110000000000000000e+02 3.514998473869762829e+00
4.120000000000000000e+02 2.345235107239199923e+00
4.130000000000000000e+02 4.047508531425302314e-01
4.140000000000000000e+02 3.845781995022802824e-01
4.150000000000000000e+02 7.100236162621784697e-01
4.160000000000000000e+02 1.901831166977796084e+00
4.170000000000000000e+02 8.908233926571297312e-01
4.180000000000000000e+02 2.053041602364654938e+00
4.190000000000000000e+02 3.744025185646068232e-01
4.200000000000000000e+02 4.175622217382187751e-01
4.210000000000000000e+02 4.842377834474244080e-01
4.220000000000000000e+02 3.423556753428709798e-01
4.230000000000000000e+02 7.653759346608817182e-01
4.240000000000000000e+02 1.067003484339341446e+00
4.250000000000000000e+02 1.123230720182563536e+00
4.260000000000000000e+02 2.618054520638846583e+00
4.270000000000000000e+02 5.020908140634803729e+00
4.280000000000000000e+02 5.944338625466462744e+00
4.290000000000000000e+02 3.539954633893303004e-01
4.300000000000000000e+02 2.194729420037325074e+00
4.310000000000000000e+02 6.808978386561729268e-01
4.320000000000000000e+02 8.740547828251006290e-01
4.330000000000000000e+02 4.068720835303870409e+00
4.340000000000000000e+02 4.118388302778929422e+00
4.350000000000000000e+02 4.435410199958514710e+00
4.360000000000000000e+02 5.218393082762908364e+00
4.370000000000000000e+02 5.032872754043959063e+00
4.380000000000000000e+02 4.895741650694884761e+00
4.390000000000000000e+02 5.938831062020329732e+00
4.400000000000000000e+02 5.474178169881767531e+00
4.410000000000000000e+02 8.692106436838905381e+00
4.420000000000000000e+02 1.025639700477078620e+01
4.430000000000000000e+02 9.867432573828287090e+00
4.440000000000000000e+02 1.050284025513386510e+01
4.450000000000000000e+02 1.299659754822652502e+01
4.460000000000000000e+02 1.134624570302777791e+01
4.470000000000000000e+02 1.013718813316738654e+01
4.480000000000000000e+02 1.191227577266116100e+01
4.490000000000000000e+02 1.553899400248861262e+01
4.500000000000000000e+02 1.751185629744863803e+01
4.510000000000000000e+02 2.012405852105367998e+01
4.520000000000000000e+02 2.035088807133969624e+01
4.530000000000000000e+02 2.020022897116780669e+01
4.540000000000000000e+02 2.177290733042935500e+01
4.550000000000000000e+02 2.330330397635344042e+01
4.560000000000000000e+02 2.122473832399917626e+01
4.570000000000000000e+02 2.487682637627047910e+01
4.580000000000000000e+02 2.862886329599668400e+01
4.590000000000000000e+02 2.856359605476042773e+01
4.600000000000000000e+02 2.857336664799832704e+01
4.610000000000000000e+02 2.656052028209915505e+01
4.620000000000000000e+02 2.968863460277962574e+01
4.630000000000000000e+02 3.191704391412568853e+01
4.640000000000000000e+02 3.221899130055999905e+01
4.650000000000000000e+02 3.451252870773694781e+01
4.660000000000000000e+02 3.180011833851891367e+01
4.670000000000000000e+02 3.376928644057245066e+01
4.680000000000000000e+02 3.686364065961414127e+01
4.690000000000000000e+02 3.847219531729571429e+01
4.700000000000000000e+02 3.830328079444100098e+01
4.710000000000000000e+02 3.566368024891099964e+01
4.720000000000000000e+02 4.154149716715050999e+01
4.730000000000000000e+02 4.549418353453640407e+01
4.740000000000000000e+02 4.575234934660858954e+01
4.750000000000000000e+02 4.725063807963503137e+01
4.760000000000000000e+02 5.144314961418797338e+01
4.770000000000000000e+02 5.192510304293714540e+01
4.780000000000000000e+02 5.324342772708425287e+01
4.790000000000000000e+02 5.693452871603412291e+01
4.800000000000000000e+02 6.031122952084633226e+01
4.810000000000000000e+02 6.017047692658648828e+01
4.820000000000000000e+02 5.887339600497816861e+01
4.830000000000000000e+02 6.287828753992960884e+01
4.840000000000000000e+02 6.582814402198714276e+01
4.850000000000000000e+02 6.635950994192073438e+01
4.860000000000000000e+02 6.861733458618536474e+01
4.870000000000000000e+02 7.266959135034224460e+01
4.880000000000000000e+02 7.370619646753785048e+01
4.890000000000000000e+02 7.481116979879689666e+01
4.900000000000000000e+02 7.781237607550303892e+01
4.910000000000000000e+02 8.102067486621034220e+01
4.920000000000000000e+02 8.108507429371498176e+01
4.930000000000000000e+02 8.358866985065344579e+01
4.940000000000000000e+02 8.491521371707115406e+01
4.950000000000000000e+02 8.552041906658369896e+01
4.960000000000000000e+02 8.679550220908527081e+01
4.970000000000000000e+02 8.736232145820368089e+01
4.980000000000000000e+02 8.645652111157197339e+01
4.990000000000000000e+02 8.847572125077776661e+01
5.000000000000000000e+02 9.104943092719356912e+01
5.010000000000000000e+02 9.195055756947324710e+01
5.020000000000000000e+02 9.234616008089605543e+01
5.030000000000000000e+02 9.535811868906861832e+01
5.040000000000000000e+02 9.343521871422650804e+01
5.050000000000000000e+02 9.336076522713126735e+01
5.060000000000000000e+02 9.479529034432690082e+01
5.070000000000000000e+02 9.416859036291994300e+01
5.080000000000000000e+02 9.394325161792158951e+01
5.090000000000000000e+02 8.978796871188551165e+01
5.100000000000000000e+02 8.968564062227758882e+01
5.110000000000000000e+02 9.320024688238959243e+01
5.120000000000000000e+02 9.473963557353243914e+01
5.130000000000000000e+02 9.059168294544703315e+01
5.140000000000000000e+02 9.058321430616054215e+01
5.150000000000000000e+02 8.812487140842155497e+01
5.160000000000000000e+02 8.787433864965777275e+01
5.170000000000000000e+02 8.742355951254923241e+01
5.180000000000000000e+02 8.275264621032980017e+01
5.190000000000000000e+02 8.522384230864975052e+01
5.200000000000000000e+02 8.592850338518978504e+01
5.210000000000000000e+02 8.382388365069479619e+01
5.220000000000000000e+02 7.991196280439720567e+01
5.230000000000000000e+02 7.744185006845074781e+01
5.240000000000000000e+02 8.169751846121936012e+01
5.250000000000000000e+02 7.723948407384382620e+01
5.260000000000000000e+02 7.280352182119879956e+01
5.270000000000000000e+02 6.991849555371206293e+01
5.280000000000000000e+02 6.842704752955818037e+01
5.290000000000000000e+02 6.869486457996265472e+01
5.300000000000000000e+02 6.817374413728744287e+01
5.310000000000000000e+02 6.500959304915993187e+01
5.320000000000000000e+02 6.357249683260734230e+01
5.330000000000000000e+02 6.290940908336786919e+01
5.340000000000000000e+02 6.090265335615013242e+01
5.350000000000000000e+02 5.901449970130673961e+01
5.360000000000000000e+02 5.612302807301379204e+01
5.370000000000000000e+02 5.419546091474791893e+01
5.380000000000000000e+02 5.167242165940668031e+01
5.390000000000000000e+02 4.859119174652554562e+01
5.400000000000000000e+02 4.731923032565858733e+01
5.410000000000000000e+02 4.807706690105786151e+01
5.420000000000000000e+02 4.607088456129442022e+01
5.430000000000000000e+02 4.435547524165109934e+01
5.440000000000000000e+02 4.366735881974693001e+01
5.450000000000000000e+02 4.163308737813733984e+01
5.460000000000000000e+02 3.728638082762915218e+01
5.470000000000000000e+02 3.559036399294753039e+01
5.480000000000000000e+02 3.451249844430613933e+01
5.490000000000000000e+02 3.380468830533084201e+01
5.500000000000000000e+02 3.220416515968473448e+01
5.510000000000000000e+02 2.793267783447413777e+01
5.520000000000000000e+02 2.724795727027588654e+01
5.530000000000000000e+02 2.905992075694733145e+01
5.540000000000000000e+02 2.709743026135647526e+01
5.550000000000000000e+02 2.418698835718730322e+01
5.560000000000000000e+02 2.346515869763581108e+01
5.570000000000000000e+02 2.053280879070727849e+01
5.580000000000000000e+02 1.811267982576228519e+01
5.590000000000000000e+02 2.047831045209461465e+01
5.600000000000000000e+02 2.236779665214685053e+01
5.610000000000000000e+02 2.009891041070317641e+01
5.620000000000000000e+02 1.546825164247194984e+01
5.630000000000000000e+02 1.528524377100186094e+01
5.640000000000000000e+02 1.362389105164902681e+01
5.650000000000000000e+02 1.349788810827629959e+01
5.660000000000000000e+02 1.347803494918066569e+01
5.670000000000000000e+02 1.321679030699023372e+01
5.680000000000000000e+02 1.438223014519807563e+01
5.690000000000000000e+02 1.012053649035470748e+01
5.700000000000000000e+02 8.701295295581825684e+00
5.710000000000000000e+02 8.940065933208877880e+00
5.720000000000000000e+02 9.168199552789875639e+00
5.730000000000000000e+02 8.788548155569404940e+00
5.740000000000000000e+02 6.650592567517113807e+00
5.750000000000000000e+02 7.516783025098515481e+00
5.760000000000000000e+02 4.885972263638341140e+00
5.770000000000000000e+02 4.226685601742382836e+00
5.780000000000000000e+02 5.676457135656501229e+00
5.790000000000000000e+02 4.817110007880549105e+00
5.800000000000000000e+02 4.769115252852112796e+00
5.810000000000000000e+02 3.164187834474212035e+00
5.820000000000000000e+02 1.475348028618851171e+00
5.830000000000000000e+02 1.189962011823264998e+00
5.840000000000000000e+02 1.866500144368377301e+00
5.850000000000000000e+02 2.335162940688501720e+00
5.860000000000000000e+02 3.027798240199122581e+00
5.870000000000000000e+02 1.315793311138826027e+00
5.880000000000000000e+02 2.575937756896758302e+00
5.890000000000000000e+02 3.145530851275753825e+00
5.900000000000000000e+02 2.314462242273375714e-01
5.910000000000000000e+02 5.445097386431944908e-02
5.920000000000000000e+02 9.903026798009144649e-01
5.930000000000000000e+02 2.844524559220028004e-01
5.940000000000000000e+02 7.585622061812934414e-01
5.950000000000000000e+02 9.782653181252616292e-01
5.960000000000000000e+02 1.730549647168628580e+00
5.970000000000000000e+02 9.107384287492189534e-01
5.980000000000000000e+02 2.333046182082052944e+00
5.990000000000000000e+02 1.387943883219162400e+00
6.000000000000000000e+02 8.203573329185267493e-01
6.010000000000000000e+02 1.804747614682681300e+00
6.020000000000000000e+02 1.576366850031136524e+00
6.030000000000000000e+02 3.000424190002670688e-01
6.040000000000000000e+02 1.324833490562104643e+00
6.050000000000000000e+02 1.087164892968307317e+00
6.060000000000000000e+02 2.287292072184250458e-01
6.070000000000000000e+02 5.617080547603998664e-01
6.080000000000000000e+02 1.852916673926586100e+00
6.090000000000000000e+02 5.713949813316382409e-01
6.100000000000000000e+02 2.420600130678291606e+00
6.110000000000000000e+02 1.782353237295150716e+00
6.120000000000000000e+02 6.840358583281516136e-01
6.130000000000000000e+02 1.132207459240787140e+00
6.140000000000000000e+02 1.568123701306836315e+00
6.150000000000000000e+02 1.731728881974214929e-01
6.160000000000000000e+02 9.175503103091530166e-01
6.170000000000000000e+02 5.835480935490195975e-01
6.180000000000000000e+02 1.727776672286288617e-01
6.190000000000000000e+02 1.125883134854495315e+00
6.200000000000000000e+02 1.389066331259096732e+00
6.210000000000000000e+02 3.680532675239178708e-01
6.220000000000000000e+02 5.039639904830511830e-01
6.230000000000000000e+02 1.939753230864958100e+00
6.240000000000000000e+02 1.562606170053929544e+00
6.250000000000000000e+02 5.116337139597582073e-01
6.260000000000000000e+02 6.572011721634509751e-01
6.270000000000000000e+02 1.097499899004595436e+00
6.280000000000000000e+02 1.832731287492301853e+00
6.290000000000000000e+02 1.620455736154257975e+00
6.300000000000000000e+02 1.234646311903848659e+00
6.310000000000000000e+02 7.230438255548475857e-01
6.320000000000000000e+02 2.919194393279516131e-01
6.330000000000000000e+02 1.401861686994432921e+00
6.340000000000000000e+02 5.366581752748138534e-01
6.350000000000000000e+02 3.206633646546229732e-01
6.360000000000000000e+02 1.484441608379937438e+00
6.370000000000000000e+02 3.085863389545743019e+00
6.380000000000000000e+02 1.642135645094364937e+00
6.390000000000000000e+02 2.895570114913914139e+00
6.400000000000000000e+02 1.658076094171345494e+00
6.410000000000000000e+02 1.617756228375845762e+00
6.420000000000000000e+02 3.029487998755448164e+00
6.430000000000000000e+02 2.433975788840485599e+00
6.440000000000000000e+02 3.996695829531311084e+00
6.450000000000000000e+02 3.233268468574966636e+00
6.460000000000000000e+02 3.856205343497216109e+00
6.470000000000000000e+02 3.114044807133924397e+00
6.480000000000000000e+02 1.744722680564239070e+00
6.490000000000000000e+02 3.248365427089824564e+00
6.500000000000000000e+02 3.163569345085018636e+00
6.510000000000000000e+02 2.532686378344730649e+00
6.520000000000000000e+02 2.577156901057876759e+00
6.530000000000000000e+02 3.055037205309008908e+00
6.540000000000000000e+02 3.252141541796308211e+00
6.550000000000000000e+02 3.292222253889236061e+00
6.560000000000000000e+02 3.893228397552884079e+00
6.570000000000000000e+02 9.754251626218222171e-01
6.580000000000000000e+02 1.797134584111197420e-01
6.590000000000000000e+02 1.389804001452014326e+00
6.600000000000000000e+02 3.017370037958938767e+00
6.610000000000000000e+02 3.742957551337897204e+00
6.620000000000000000e+02 3.334546656087944871e+00
6.630000000000000000e+02 3.279473498444305690e+00
6.640000000000000000e+02 2.045998535780967575e+00
6.650000000000000000e+02 2.208779075295598915e+00
6.660000000000000000e+02 3.986989333333333718e+00
6.670000000000000000e+02 4.594359835926161040e+00
6.680000000000000000e+02 2.430315601327516006e+00
6.690000000000000000e+02 3.359225334163030929e+00
6.700000000000000000e+02 2.290391835718762259e+00
6.710000000000000000e+02 3.047274855216764333e+00
6.720000000000000000e+02 4.298098038581200875e+00
6.730000000000000000e+02 3.367959472210694916e+00
6.740000000000000000e+02 4.196543011200992268e+00
6.750000000000000000e+02 5.660620105164893445e+00
6.760000000000000000e+02 4.855716504769825193e+00
6.770000000000000000e+02 3.688650002074261192e+00
6.780000000000000000e+02 3.939597787181065236e+00
6.790000000000000000e+02 4.338174880340112338e+00
6.800000000000000000e+02 3.373153111595113440e+00
6.810000000000000000e+02 2.917297271313008977e+00
6.820000000000000000e+02 3.839513843218571143e+00
6.830000000000000000e+02 2.130279796515289981e+00
6.840000000000000000e+02 1.595140800456267938e+00
6.850000000000000000e+02 3.884069993154946943e+00
6.860000000000000000e+02 3.982397719767682975e+00
6.870000000000000000e+02 3.955502505911637101e+00
6.880000000000000000e+02 3.559813541381455337e+00
6.890000000000000000e+02 4.502630007882217456e+00
6.900000000000000000e+02 5.533007641568143065e+00
6.910000000000000000e+02 5.774113031113871308e+00
6.920000000000000000e+02 5.747965123833248313e+00
6.930000000000000000e+02 4.736489250363025150e+00
6.940000000000000000e+02 4.947570646753773005e+00
6.950000000000000000e+02 4.960897355735331971e+00
6.960000000000000000e+02 6.163800415059020210e+00
6.970000000000000000e+02 7.368523145612939196e+00
6.980000000000000000e+02 6.621684612735870168e+00
6.990000000000000000e+02 9.167149735379485520e+00
7.000000000000000000e+02 9.212774475627460546e+00
7.010000000000000000e+02 1.031957211574360933e+01
7.020000000000000000e+02 1.056029804230609770e+01
7.030000000000000000e+02 1.100392919103924072e+01
7.040000000000000000e+02 1.264275116573323920e+01
7.050000000000000000e+02 1.216581274574861204e+01
7.060000000000000000e+02 1.667178838207859570e+01
7.070000000000000000e+02 2.137989887990057980e+01
7.080000000000000000e+02 2.330601336789712619e+01
7.090000000000000000e+02 2.393546494295785720e+01
7.100000000000000000e+02 2.568781537025501649e+01
7.110000000000000000e+02 2.925670348475404126e+01
7.120000000000000000e+02 3.409162505911620400e+01
7.130000000000000000e+02 3.857029338518960060e+01
7.140000000000000000e+02 4.557594090645084606e+01
7.150000000000000000e+02 5.152083498444301313e+01
7.160000000000000000e+02 5.636336109520834725e+01
7.170000000000000000e+02 6.232583126944619778e+01
7.180000000000000000e+02 6.436597433934872470e+01
7.190000000000000000e+02 7.474469715619173371e+01
7.200000000000000000e+02 8.074609840074683120e+01
7.210000000000000000e+02 8.742806059323818602e+01
7.220000000000000000e+02 9.519874333748201423e+01
7.230000000000000000e+02 1.009995381041274527e+02
7.240000000000000000e+02 1.087105439327943941e+02
7.250000000000000000e+02 1.136845582123602725e+02
7.260000000000000000e+02 1.200332089400536404e+02
7.270000000000000000e+02 1.273405725990455579e+02
7.280000000000000000e+02 1.314676553297387045e+02
7.290000000000000000e+02 1.325986601742376649e+02
7.300000000000000000e+02 1.348542470649242659e+02
7.310000000000000000e+02 1.348676848195769651e+02
7.320000000000000000e+02 1.320190599045841111e+02
7.330000000000000000e+02 1.323245631611698911e+02
7.340000000000000000e+02 1.288677246785564705e+02
7.350000000000000000e+02 1.221422968678696037e+02
7.360000000000000000e+02 1.170288498651730862e+02
7.370000000000000000e+02 1.118115303608459215e+02
7.380000000000000000e+02 1.111380685127565755e+02
7.390000000000000000e+02 1.075094858742997559e+02
7.400000000000000000e+02 1.011019576934249073e+02
7.410000000000000000e+02 9.602231639493869864e+01
7.420000000000000000e+02 9.280310493466072330e+01
7.430000000000000000e+02 8.843322789047925880e+01
7.440000000000000000e+02 8.444562232524384626e+01
7.450000000000000000e+02 7.931165800871204397e+01
7.460000000000000000e+02 7.388936755652356680e+01
7.470000000000000000e+02 6.780600066583700425e+01
7.480000000000000000e+02 6.271199779298903110e+01
7.490000000000000000e+02 5.884925158265912160e+01
7.500000000000000000e+02 5.308131968263836598e+01
7.510000000000000000e+02 4.858645131922830984e+01
7.520000000000000000e+02 4.400206281891702531e+01
7.530000000000000000e+02 3.623587594067603135e+01
7.540000000000000000e+02 3.272082426793866716e+01
7.550000000000000000e+02 3.335554098112415744e+01
7.560000000000000000e+02 2.946824242065951438e+01
7.570000000000000000e+02 2.448805508502686834e+01
7.580000000000000000e+02 2.080717595104741235e+01
7.590000000000000000e+02 1.633806591371078198e+01
7.600000000000000000e+02 1.615209129199510585e+01
7.610000000000000000e+02 1.505262940261361848e+01
7.620000000000000000e+02 1.068033459033398103e+01
7.630000000000000000e+02 1.134640443384491171e+01
7.640000000000000000e+02 1.303660950840075827e+01
7.650000000000000000e+02 9.646163645924053398e+00
7.660000000000000000e+02 7.060859126944587061e+00
7.670000000000000000e+02 6.093700423563570112e+00
7.680000000000000000e+02 5.832791687824102844e+00
7.690000000000000000e+02 6.059834217589723515e+00
7.700000000000000000e+02 6.512775574362160036e+00
7.710000000000000000e+02 5.523334397013067942e+00
7.720000000000000000e+02 7.021219584526058100e+00
7.730000000000000000e+02 4.366943784277090401e+00
7.740000000000000000e+02 1.990418308027376959e+00
7.750000000000000000e+02 3.366678540136921693e+00
7.760000000000000000e+02 4.196556155776808517e+00
7.770000000000000000e+02 2.023549032565872263e+00
7.780000000000000000e+02 2.091269021779716297e+00
7.790000000000000000e+02 6.799272818917188044e-01
7.800000000000000000e+02 1.379747461634170669e-01
7.810000000000000000e+02 1.892361747147907947e+00
7.820000000000000000e+02 3.759363348682864370e+00
7.830000000000000000e+02 1.532377412899212477e+00
7.840000000000000000e+02 2.144687596141879204e+00
7.850000000000000000e+02 1.603526919103930748e+00
7.860000000000000000e+02 3.678167965152692176e-01
7.870000000000000000e+02 7.581702215307590809e-01
7.880000000000000000e+02 1.270174618543879141e+00
7.890000000000000000e+02 4.280728931757071809e-01
7.900000000000000000e+02 9.394956904169556033e-02
7.910000000000000000e+02 6.471784048952375912e-01
7.920000000000000000e+02 1.669108378344736243e+00
7.930000000000000000e+02 1.378605334508515634e+00
7.940000000000000000e+02 1.447993564405722910e+00
7.950000000000000000e+02 8.063642547189369125e-01
7.960000000000000000e+02 1.356753403152213044e+00
7.970000000000000000e+02 1.233831746733048407e+00
7.980000000000000000e+02 2.757520244316382652e-01
7.990000000000000000e+02 4.408302531627478205e-01
8.000000000000000000e+02 4.490992855838874753e+00
8.010000000000000000e+02 2.579631925326409725e+00
8.020000000000000000e+02 2.809474798839349807e-01
8.030000000000000000e+02 2.504072452603185894e+00
8.040000000000000000e+02 2.763751169882491254e-01
8.050000000000000000e+02 6.660313678971077067e-01
8.060000000000000000e+02 6.605031107654325551e-01
8.070000000000000000e+02 9.347891331673414683e-01
8.080000000000000000e+02 1.706606240613985692e+00
8.090000000000000000e+02 8.604536504874638059e-01
8.100000000000000000e+02 6.516675796203881543e-02
8.110000000000000000e+02 6.374766267952867993e-02
8.120000000000000000e+02 3.760696932171793683e-01
8.130000000000000000e+02 9.609337359469032336e-01
8.140000000000000000e+02 7.939930974901264760e-01
8.150000000000000000e+02 6.686394953329687363e-01
8.160000000000000000e+02 8.116549607964728130e-01
8.170000000000000000e+02 3.656866747562817488e-01
8.180000000000000000e+02 1.341536264675462498e+00
8.190000000000000000e+02 6.495176250518304162e-01
8.200000000000000000e+02 5.811312221530787747e-01
8.210000000000000000e+02 1.773858964945034256e-01
8.220000000000000000e+02 1.293521092077891677e+00
8.230000000000000000e+02 2.183995936320291875e+00
8.240000000000000000e+02 8.243142140634833748e-01
8.250000000000000000e+02 1.079491195354612465e+00
8.260000000000000000e+02 2.815638217382288921e+00
8.270000000000000000e+02 1.104043414229423092e+00
8.280000000000000000e+02 9.444332536291916158e-01
8.290000000000000000e+02 2.055171210952086547e+00
8.300000000000000000e+02 1.769287973656908042e+00
8.310000000000000000e+02 1.359472544172524611e+00
8.320000000000000000e+02 8.996582283758277621e-01
8.330000000000000000e+02 1.199438469197453977e-01
8.340000000000000000e+02 1.352737219663900481e+00
8.350000000000000000e+02 2.421312752126075107e+00
8.360000000000000000e+02 4.061979100809031351e+00
8.370000000000000000e+02 3.133049074880847940e+00
8.380000000000000000e+02 1.176721106409379436e+00
8.390000000000000000e+02 4.394916470856670365e+00
8.400000000000000000e+02 2.435440151213442039e+00
8.410000000000000000e+02 2.598380649657745955e+00
8.420000000000000000e+02 1.563215885500938152e+00
8.430000000000000000e+02 1.851659315494746050e+00
8.440000000000000000e+02 3.499980322339796501e+00
8.450000000000000000e+02 4.005055388508601766e+00
8.460000000000000000e+02 2.462278052271253515e+00
8.470000000000000000e+02 1.559167192906095289e+00
8.480000000000000000e+02 3.853710377022019795e+00
8.490000000000000000e+02 4.098192690728041931e+00
8.500000000000000000e+02 3.629711453225462847e+00
8.510000000000000000e+02 3.185857559518856963e+00
8.520000000000000000e+02 2.326255321717523028e+00
8.530000000000000000e+02 2.616797616884529720e+00
8.540000000000000000e+02 6.235326289921276910e+00
8.550000000000000000e+02 7.515784605061185175e+00
8.560000000000000000e+02 8.582639039825751937e+00
8.570000000000000000e+02 1.006766027892992277e+01
8.580000000000000000e+02 1.037531506326487651e+01
8.590000000000000000e+02 1.119509332711058214e+01
8.600000000000000000e+02 1.351179505704212147e+01
8.610000000000000000e+02 1.409313961418796701e+01
8.620000000000000000e+02 1.582792484546774858e+01
8.630000000000000000e+02 1.540425012652975312e+01
8.640000000000000000e+02 1.541245959551961597e+01
8.650000000000000000e+02 1.727230883011825213e+01
8.660000000000000000e+02 1.973087723086500844e+01
8.670000000000000000e+02 1.984005541381453241e+01
8.680000000000000000e+02 1.801468263638249212e+01
8.690000000000000000e+02 1.961996437253680625e+01
8.700000000000000000e+02 1.635632052271310144e+01
8.710000000000000000e+02 1.685725760215722602e+01
8.720000000000000000e+02 1.431998862684086760e+01
8.730000000000000000e+02 1.436364031736155766e+01
8.740000000000000000e+02 1.419168433222731274e+01
8.750000000000000000e+02 8.289440497199727531e+00
8.760000000000000000e+02 6.515806523542832629e+00
8.770000000000000000e+02 5.483797378681046553e+00
8.780000000000000000e+02 3.923752839037537576e+00
8.790000000000000000e+02 3.719701970752954168e+00
8.800000000000000000e+02 4.375997951679800657e+00
8.810000000000000000e+02 3.322369032980703629e+00
8.820000000000000000e+02 1.198681600082979415e+00
8.830000000000000000e+02 1.492338519701371213e+00
8.840000000000000000e+02 4.133048749222149709e+00
8.850000000000000000e+02 2.246423211159537914e+00
8.860000000000000000e+02 3.876429162795530736e+00
8.870000000000000000e+02 2.906180099771829006e+00
8.880000000000000000e+02 1.829657707529558142e+00
8.890000000000000000e+02 2.484839777224641999e+00
8.900000000000000000e+02 2.735769608794859753e+00
8.910000000000000000e+02 2.304177718315695067e+00
8.920000000000000000e+02 2.056615745488489022e+00
8.930000000000000000e+02 1.725018128189177880e+00
8.940000000000000000e+02 1.101645715411752935e+00
8.950000000000000000e+02 1.669302932171737863e+00
8.960000000000000000e+02 2.612795196639691397e+00
8.970000000000000000e+02 2.666809948973249522e+00
8.980000000000000000e+02 2.266104018668329889e+00
8.990000000000000000e+02 1.927294464426480225e+00
9.000000000000000000e+02 7.020474802985510188e-01
9.010000000000000000e+02 4.492150314872418448e+00
9.020000000000000000e+02 5.795768247044184918e+00
9.030000000000000000e+02 5.096904059311510693e+00
9.040000000000000000e+02 5.007069147272368959e+00
9.050000000000000000e+02 4.186763939846446014e+00
9.060000000000000000e+02 2.180957785980853547e+00
9.070000000000000000e+02 5.749890329184760951e+00
9.080000000000000000e+02 5.412365984443122002e+00
9.090000000000000000e+02 2.043038214848694523e+00
9.100000000000000000e+02 2.196400408006573546e+00
9.110000000000000000e+02 2.823809842563797634e+00
9.120000000000000000e+02 3.849281422646149586e+00
9.130000000000000000e+02 5.910876668118617339e+00
9.140000000000000000e+02 5.255168322339734743e+00
9.150000000000000000e+02 5.751301292470455628e+00
9.160000000000000000e+02 3.987090014934670634e+00
9.170000000000000000e+02 4.267478243517928149e+00
9.180000000000000000e+02 5.324653435179433458e+00
9.190000000000000000e+02 6.200113477079452373e+00
9.200000000000000000e+02 6.073278673926560067e+00
9.210000000000000000e+02 5.124459260734281152e+00
9.220000000000000000e+02 4.848661304501117542e+00
9.230000000000000000e+02 3.388968762704804405e+00
9.240000000000000000e+02 3.761594884463776989e+00
9.250000000000000000e+02 3.101252298070990676e+00
9.260000000000000000e+02 4.518176889027300192e+00
9.270000000000000000e+02 4.395613667703876182e+00
9.280000000000000000e+02 3.538590531839788333e+00
9.290000000000000000e+02 5.215490340522565660e+00
9.300000000000000000e+02 5.739840292470453242e+00
9.310000000000000000e+02 4.889439316531848156e+00
9.320000000000000000e+02 4.632636524885942464e+00
9.330000000000000000e+02 3.949848655673093845e+00
9.340000000000000000e+02 3.771070881767268901e+00
9.350000000000000000e+02 2.676289857735335787e+00
9.360000000000000000e+02 2.595122291225940625e+00
9.370000000000000000e+02 4.586649685542437460e+00
9.380000000000000000e+02 4.244116883865600265e+00
9.390000000000000000e+02 4.644425330429402976e+00
9.400000000000000000e+02 6.205174902924770919e+00
9.410000000000000000e+02 5.255020140427341779e+00
9.420000000000000000e+02 4.912519123833201995e+00
9.430000000000000000e+02 5.773325263845719313e+00
9.440000000000000000e+02 6.426332431860610761e+00
9.450000000000000000e+02 5.588421527898839614e+00
9.460000000000000000e+02 3.335756618336482404e+00
9.470000000000000000e+02 2.977649247459031479e+00
9.480000000000000000e+02 5.298713004355938949e+00
9.490000000000000000e+02 3.349507718937993594e+00
9.500000000000000000e+02 3.039729659614216040e+00
9.510000000000000000e+02 6.233884098734788992e+00
9.520000000000000000e+02 5.966043739887917141e+00
9.530000000000000000e+02 2.647166854387004165e+00
9.540000000000000000e+02 4.518322635345272786e+00
9.550000000000000000e+02 2.270147198672786359e+00
9.560000000000000000e+02 4.166439308027427124e+00
9.570000000000000000e+02 4.319165732420633397e+00
9.580000000000000000e+02 3.337748139361224275e+00
9.590000000000000000e+02 1.794934050197107389e+00
9.600000000000000000e+02 2.036996149761529651e+00
9.610000000000000000e+02 2.861599493778463899e+00
9.620000000000000000e+02 1.491599011823272924e+00
9.630000000000000000e+02 2.163012435386845400e+00
9.640000000000000000e+02 8.499514956449591985e-01
9.650000000000000000e+02 4.817196103505556160e+00
9.660000000000000000e+02 3.819692361543209458e+00
9.670000000000000000e+02 2.497054845499778519e+00
9.680000000000000000e+02 2.748692254719756201e-01
9.690000000000000000e+02 1.385686310723897696e+00
9.700000000000000000e+02 2.071264883426644055e+00
9.710000000000000000e+02 9.342820578717930813e-01
9.720000000000000000e+02 6.432254202447699187e-01
9.730000000000000000e+02 1.650912588882003984e+00
9.740000000000000000e+02 2.409560359676416130e+00
9.750000000000000000e+02 8.487449427504637489e-01
9.760000000000000000e+02 1.577967299315462757e+00
9.770000000000000000e+02 1.146217420659681130e+00
9.780000000000000000e+02 1.652873284795684183e+00
9.790000000000000000e+02 1.100832875337084626e+00
9.800000000000000000e+02 1.965702691350343922e+00
9.810000000000000000e+02 8.559931182082100021e-01
9.820000000000000000e+02 1.086691898755218988e+00
9.830000000000000000e+02 1.781020597801282968e+00
9.840000000000000000e+02 5.654098998133179066e-01
9.850000000000000000e+02 6.361863248288806005e-01
9.860000000000000000e+02 1.536041308857080678e-01
9.870000000000000000e+02 1.680619157851083456e-01
9.880000000000000000e+02 2.240364264617419610e-01
9.890000000000000000e+02 1.196057573739888413e+00
9.900000000000000000e+02 1.276263227131270828e+00
9.910000000000000000e+02 7.368707172785744497e-01
9.920000000000000000e+02 1.833777160962453134e+00
9.930000000000000000e+02 1.132291039203506378e+00
9.940000000000000000e+02 1.064235392575661354e+00
9.950000000000000000e+02 1.464952514830949903e+00
9.960000000000000000e+02 9.427647212300103996e-02
9.970000000000000000e+02 5.844646296142737008e-01
9.980000000000000000e+02 1.678168329184817953e+00
9.990000000000000000e+02 6.306165592201052883e-01
1.000000000000000000e+03 5.070629080339976724e-01
1.001000000000000000e+03 6.644418298755000452e-01
1.002000000000000000e+03 3.313005001245003522e-02
1.003000000000000000e+03 9.192187842324111013e-01
1.004000000000000000e+03 1.664226564315368861e+00
1.005000000000000000e+03 2.350932531120881741e-01
1.006000000000000000e+03 8.813244128630701724e-01
1.007000000000000000e+03 2.170915136929407740e+00
1.008000000000000000e+03 1.135292516597502743e+00
1.009000000000000000e+03 3.735954315913060375e-01
1.010000000000000000e+03 1.089861414937780992e+00
1.011000000000000000e+03 8.335049834025159976e-01
1.012000000000000000e+03 4.098745020746915046e-01
1.013000000000000000e+03 1.020583559006210450e+00
1.014000000000000000e+03 3.062667302904348299e-01
1.015000000000000000e+03 7.779691639004050474e-01
1.016000000000000000e+03 7.773809356846064222e-01
1.017000000000000000e+03 7.015393374741345500e-01
1.018000000000000000e+03 3.025071759336096733e+00
1.019000000000000000e+03 2.088320879668186691e+00
1.020000000000000000e+03 1.955193116182586621e+00
1.021000000000000000e+03 3.935045985507241717e+00
1.022000000000000000e+03 5.616981033195174611e+00
1.023000000000000000e+03 1.015362852697094809e+01
1.024000000000000000e+03 1.029054601659752777e+01
1.025000000000000000e+03 1.148972325051759569e+01
1.026000000000000000e+03 1.168028539419079515e+01
1.027000000000000000e+03 9.892518863070693058e+00
1.028000000000000000e+03 1.067271738589203345e+01
1.029000000000000000e+03 1.200001863070539798e+01
1.030000000000000000e+03 1.351095419087124050e+01
1.031000000000000000e+03 1.679563678423220097e+01
1.032000000000000000e+03 2.001468255186724221e+01
1.033000000000000000e+03 2.359260912863084769e+01
1.034000000000000000e+03 2.153491381742752964e+01
1.035000000000000000e+03 2.732260041493767133e+01
1.036000000000000000e+03 3.085143721991714116e+01
1.037000000000000000e+03 3.454939095238118796e+01
1.038000000000000000e+03 3.567179829875524888e+01
1.039000000000000000e+03 3.932537433609979871e+01
1.040000000000000000e+03 4.668134454356851393e+01
1.041000000000000000e+03 4.772741852697071607e+01
1.042000000000000000e+03 5.119842037267077473e+01
1.043000000000000000e+03 5.447556369294641598e+01
1.044000000000000000e+03 6.531876049792484196e+01
1.045000000000000000e+03 6.756799489626558852e+01
1.046000000000000000e+03 7.368189285714318260e+01
1.047000000000000000e+03 8.076262269709596353e+01
1.048000000000000000e+03 8.642362026970907607e+01
1.049000000000000000e+03 9.387004668049783618e+01
1.050000000000000000e+03 1.018017502074691265e+02
1.051000000000000000e+03 1.074384763485465299e+02
1.052000000000000000e+03 1.208833676348543804e+02
1.053000000000000000e+03 1.312089145228218285e+02
1.054000000000000000e+03 1.402984648033125836e+02
1.055000000000000000e+03 1.556222255186712005e+02
1.056000000000000000e+03 1.696244350622407069e+02
1.057000000000000000e+03 1.850673518672211912e+02
1.058000000000000000e+03 2.011864275933604063e+02
1.059000000000000000e+03 2.165750618257257827e+02
1.060000000000000000e+03 2.384669593361005013e+02
1.061000000000000000e+03 2.584419253112054662e+02
1.062000000000000000e+03 2.823768917184250427e+02
1.063000000000000000e+03 3.053345570539424330e+02
1.064000000000000000e+03 3.352599010373472197e+02
1.065000000000000000e+03 3.735807184647267150e+02
1.066000000000000000e+03 4.139005012422352934e+02
1.067000000000000000e+03 4.530531975103755826e+02
1.068000000000000000e+03 5.000357107883821186e+02
1.069000000000000000e+03 5.597752327800801595e+02
1.070000000000000000e+03 6.214268336099592034e+02
1.071000000000000000e+03 6.972442074534237690e+02
1.072000000000000000e+03 8.052616041493694183e+02
1.073000000000000000e+03 9.179416037344385586e+02
1.074000000000000000e+03 1.059011985477185817e+03
1.075000000000000000e+03 1.235745763485458838e+03
1.076000000000000000e+03 1.429479709543561739e+03
1.077000000000000000e+03 1.633280473029051336e+03
1.078000000000000000e+03 1.847676261410806774e+03
1.079000000000000000e+03 2.067944603734426437e+03
1.080000000000000000e+03 2.314688095435685682e+03
1.081000000000000000e+03 2.591970114107902191e+03
1.082000000000000000e+03 2.890329423236516050e+03
1.083000000000000000e+03 3.224468527950300995e+03
1.084000000000000000e+03 3.594814091286323219e+03
1.085000000000000000e+03 3.992162933609999072e+03
1.086000000000000000e+03 4.352757730290434665e+03
1.087000000000000000e+03 4.594670161825725700e+03
1.088000000000000000e+03 4.665976919087138413e+03
1.089000000000000000e+03 4.531445197095463300e+03
1.090000000000000000e+03 4.163598331950221109e+03
1.091000000000000000e+03 3.638724213692927151e+03
1.092000000000000000e+03 3.053307734439802061e+03
1.093000000000000000e+03 2.495366879668075853e+03
1.094000000000000000e+03 2.009145892116177947e+03
1.095000000000000000e+03 1.609486999999974842e+03
1.096000000000000000e+03 1.291999991701265117e+03
1.097000000000000000e+03 1.039681316597513160e+03
1.098000000000000000e+03 8.390185804979166733e+02
1.099000000000000000e+03 6.873993448132878257e+02
1.100000000000000000e+03 5.709178124223643636e+02
1.101000000000000000e+03 4.770620601659728663e+02
1.102000000000000000e+03 4.037669348547663049e+02
1.103000000000000000e+03 3.404302041493818365e+02
1.104000000000000000e+03 2.936367279503112400e+02
1.105000000000000000e+03 2.524312780082963172e+02
1.106000000000000000e+03 2.204416369294630442e+02
1.107000000000000000e+03 1.962453174273869934e+02
1.108000000000000000e+03 1.715521279503098810e+02
1.109000000000000000e+03 1.495191082987555546e+02
1.110000000000000000e+03 1.322536394190882447e+02
1.111000000000000000e+03 1.154803564315353555e+02
1.112000000000000000e+03 1.005767750724627660e+02
1.113000000000000000e+03 8.893404798755281604e+01
1.114000000000000000e+03 7.894381997925339078e+01
1.115000000000000000e+03 6.764357587136890970e+01
1.116000000000000000e+03 5.892453898550669322e+01
1.117000000000000000e+03 5.136535174273902982e+01
1.118000000000000000e+03 4.524839224066387544e+01
1.119000000000000000e+03 4.119266556016530245e+01
1.120000000000000000e+03 3.280713045643201298e+01
1.121000000000000000e+03 2.955020989626558148e+01
1.122000000000000000e+03 2.846544493775925488e+01
1.123000000000000000e+03 2.580789356846479166e+01
1.124000000000000000e+03 2.466190686721999015e+01
1.125000000000000000e+03 1.926379614107865734e+01
1.126000000000000000e+03 1.495643394190851971e+01
1.127000000000000000e+03 1.320857016597522637e+01
1.128000000000000000e+03 1.148351257261415270e+01
1.129000000000000000e+03 1.030029576763488919e+01
1.130000000000000000e+03 9.840850582987979323e+00
1.131000000000000000e+03 6.888910130705381718e+00
1.132000000000000000e+03 7.508542765560161314e+00
1.133000000000000000e+03 6.583372997929586745e+00
1.134000000000000000e+03 4.926729643153618277e+00
1.135000000000000000e+03 4.274220780082992555e+00
1.136000000000000000e+03 2.491690784232237554e+00
1.137000000000000000e+03 2.513507130434767145e+00
1.138000000000000000e+03 1.145339946058216984e+00
1.139000000000000000e+03 5.630002510373179891e-01
1.140000000000000000e+03 1.169961244813167767e+00
1.141000000000000000e+03 1.214034666666608642e+00
1.142000000000000000e+03 2.867461535269644202e-01
1.143000000000000000e+03 2.342265668049756222e+00
1.144000000000000000e+03 1.321207419087268908e+00
1.145000000000000000e+03 1.581457391304313953e-01
1.146000000000000000e+03 3.137114543568534919e-01
1.147000000000000000e+03 9.366896058091400690e-01
1.148000000000000000e+03 1.017965836099376853e+00
1.149000000000000000e+03 1.666107000000000005e+00
1.150000000000000000e+03 2.394727398340043223e+00
1.151000000000000000e+03 4.322735477177971353e-01
1.152000000000000000e+03 2.008884730290773635e-01
1.153000000000000000e+03 1.381764879668072599e+00
1.154000000000000000e+03 1.611215352697389358e-01
1.155000000000000000e+03 2.585518352696979605e+00
1.156000000000000000e+03 5.537048091286174145e-01
1.157000000000000000e+03 3.477207273292049372e+00
1.158000000000000000e+03 1.401744510373651442e+00
1.159000000000000000e+03 6.587470995850397415e-01
1.160000000000000000e+03 2.695458892116205263e+00
1.161000000000000000e+03 1.502622933609936373e+00
1.162000000000000000e+03 1.317521101449475429e+00
1.163000000000000000e+03 2.720107253112077572e+00
1.164000000000000000e+03 2.133328132779923170e+00
1.165000000000000000e+03 4.978850767635246144e-01
1.166000000000000000e+03 1.944206472049691659e+00
1.167000000000000000e+03 1.679809925311145813e+00
1.168000000000000000e+03 1.232036597511668718e-01
1.169000000000000000e+03 4.438890663734156861e-01
1.170000000000000000e+03 3.051644149378099358e-01
1.171000000000000000e+03 3.798658381743091894e-01
1.172000000000000000e+03 2.282544655601452810e+00
1.173000000000000000e+03 3.261260371369297140e+00
1.174000000000000000e+03 1.166479422360213070e+00
1.175000000000000000e+03 1.724350153526769125e+00
1.176000000000000000e+03 3.493567672199171970e+00
1.177000000000000000e+03 2.151984929460556639e+00
1.178000000000000000e+03 2.699269643153590970e+00
1.179000000000000000e+03 1.527544881742805671e+00
1.180000000000000000e+03 1.689459037344411385e+00
1.181000000000000000e+03 3.077131404564436679e+00
1.182000000000000000e+03 4.143900556016532732e+00
1.183000000000000000e+03 4.075264468879670865e+00
1.184000000000000000e+03 4.667771107883925907e+00
1.185000000000000000e+03 5.897632278008252626e+00
1.186000000000000000e+03 5.003689956521804483e+00
1.187000000000000000e+03 4.152934157676366311e+00
1.188000000000000000e+03 4.589549016597465503e+00
1.189000000000000000e+03 3.539691037344485647e+00
1.190000000000000000e+03 3.051956846473007801e+00
1.191000000000000000e+03 6.710908807453646929e+00
1.192000000000000000e+03 6.002037676348626505e+00
1.193000000000000000e+03 5.396345734439806918e+00
1.194000000000000000e+03 4.560378626555980475e+00
1.195000000000000000e+03 4.374704432712299251e+00
1.196000000000000000e+03 5.230127620331921356e+00
1.197000000000000000e+03 5.472881076763484565e+00
1.198000000000000000e+03 5.959262039419107815e+00
1.199000000000000000e+03 5.163204597510714144e+00
1.200000000000000000e+03 2.508137684647226529e+00
1.201000000000000000e+03 6.327811182572673943e+00
1.202000000000000000e+03 5.339209070539288504e+00
1.203000000000000000e+03 5.006173552795010195e+00
1.204000000000000000e+03 5.579067296680507937e+00
1.205000000000000000e+03 6.459531834024967445e+00
1.206000000000000000e+03 7.951408136929395631e+00
1.207000000000000000e+03 6.639570358921281112e+00
1.208000000000000000e+03 5.637255365145303898e+00
1.209000000000000000e+03 7.416135112033275689e+00
1.210000000000000000e+03 7.943864236514336596e+00
1.211000000000000000e+03 9.811727801242222213e+00
1.212000000000000000e+03 7.955278910788290858e+00
1.213000000000000000e+03 7.843667342323434433e+00
1.214000000000000000e+03 1.054678033195020959e+01
1.215000000000000000e+03 6.989796923395280359e+00
1.216000000000000000e+03 6.652015116182602661e+00
1.217000000000000000e+03 7.512529141078833739e+00
1.218000000000000000e+03 6.314531120331912994e+00
1.219000000000000000e+03 6.513819107883981552e+00
1.220000000000000000e+03 7.761451937888153019e+00
1.221000000000000000e+03 6.992939943983407680e+00
1.222000000000000000e+03 5.269359354771697923e+00
1.223000000000000000e+03 4.988375414937718411e+00
1.224000000000000000e+03 6.257417659751057570e+00
1.225000000000000000e+03 5.083068199170035051e+00
1.226000000000000000e+03 3.485530502074813075e+00
1.227000000000000000e+03 7.070930074688710043e+00
1.228000000000000000e+03 5.842578300829858406e+00
1.229000000000000000e+03 5.716238773858973943e+00
1.230000000000000000e+03 6.642126919087070647e+00
1.231000000000000000e+03 5.723620358921231777e+00
1.232000000000000000e+03 4.607160250517584821e+00
1.233000000000000000e+03 5.457381941908622025e+00
1.234000000000000000e+03 5.064721502074835513e+00
1.235000000000000000e+03 3.428666925311202984e+00
1.236000000000000000e+03 3.802101518672157177e+00
1.237000000000000000e+03 2.113042004149205511e+00
1.238000000000000000e+03 4.463517060165938410e+00
1.239000000000000000e+03 5.495539964730210336e+00
1.240000000000000000e+03 3.206019937888171523e+00
1.241000000000000000e+03 3.979589165975069065e+00
1.242000000000000000e+03 3.740904614107863679e+00
1.243000000000000000e+03 3.006137804979232442e+00
1.244000000000000000e+03 3.680574043478165969e+00
1.245000000000000000e+03 3.644379630705398387e+00
1.246000000000000000e+03 1.310850170124293612e+00
1.247000000000000000e+03 3.797715512447626285e+00
1.248000000000000000e+03 7.833787883817455722e+00
1.249000000000000000e+03 4.608318142857079636e+00
1.250000000000000000e+03 5.229649684647414531e+00
1.251000000000000000e+03 6.314185618257530663e+00
1.252000000000000000e+03 2.913233464730309308e+00
1.253000000000000000e+03 2.161362585062246211e+00
1.254000000000000000e+03 2.370238109958484607e+00
1.255000000000000000e+03 2.553911056016584080e+00
1.256000000000000000e+03 3.500710460580938488e+00
1.257000000000000000e+03 3.948974091286308052e+00
1.258000000000000000e+03 2.333144921161956820e+00
1.259000000000000000e+03 3.720355456431548191e+00
1.260000000000000000e+03 5.577727132780044172e+00
1.261000000000000000e+03 4.584810459627364665e+00
1.262000000000000000e+03 3.877293381742749734e+00
1.263000000000000000e+03 2.065092464730171606e+00
1.264000000000000000e+03 1.007494159751224583e+00
1.265000000000000000e+03 3.841713204969019024e+00
1.266000000000000000e+03 2.114690970954357763e+00
1.267000000000000000e+03 2.444411954356786154e+00
1.268000000000000000e+03 8.265677842324110625e-01
1.269000000000000000e+03 1.900982977225637471e+00
1.270000000000000000e+03 3.299661371369335239e+00
1.271000000000000000e+03 2.835270448132789944e+00
1.272000000000000000e+03 2.519884863070524172e+00
1.273000000000000000e+03 2.327643289855058306e+00
1.274000000000000000e+03 2.022677655601591962e+00
1.275000000000000000e+03 2.784062875518620306e+00
1.276000000000000000e+03 3.051664564315351047e+00
1.277000000000000000e+03 2.015299215767546226e+00
1.278000000000000000e+03 2.288072219916707506e-01
1.279000000000000000e+03 1.252146350622352466e+00
1.280000000000000000e+03 2.410586192946068351e+00
1.281000000000000000e+03 2.197653321576600316e+00
1.282000000000000000e+03 8.572200434783009415e-01
1.283000000000000000e+03 1.008588755186721864e+00
1.284000000000000000e+03 0.000000000000000000e+00
1.285000000000000000e+03 0.000000000000000000e+00
1.286000000000000000e+03 0.000000000000000000e+00
1.287000000000000000e+03 0.000000000000000000e+00
1.288000000000000000e+03 0.000000000000000000e+00
1.289000000000000000e+03 0.000000000000000000e+00
1.290000000000000000e+03 0.000000000000000000e+00
1.291000000000000000e+03 0.000000000000000000e+00
1.292000000000000000e+03 0.000000000000000000e+00
1.293000000000000000e+03 0.000000000000000000e+00
1.294000000000000000e+03 0.000000000000000000e+00
1.295000000000000000e+03 0.000000000000000000e+00
1.296000000000000000e+03 0.000000000000000000e+00
1.297000000000000000e+03 0.000000000000000000e+00
1.298000000000000000e+03 0.000000000000000000e+00
1.299000000000000000e+03 0.000000000000000000e+00
1.300000000000000000e+03 0.000000000000000000e+00
1.301000000000000000e+03 0.000000000000000000e+00
1.302000000000000000e+03 0.000000000000000000e+00
1.303000000000000000e+03 0.000000000000000000e+00
1.304000000000000000e+03 0.000000000000000000e+00
1.305000000000000000e+03 0.000000000000000000e+00
1.306000000000000000e+03 0.000000000000000000e+00
1.307000000000000000e+03 0.000000000000000000e+00
1.308000000000000000e+03 0.000000000000000000e+00
1.309000000000000000e+03 0.000000000000000000e+00
1.310000000000000000e+03 0.000000000000000000e+00
1.311000000000000000e+03 0.000000000000000000e+00
1.312000000000000000e+03 0.000000000000000000e+00
1.313000000000000000e+03 0.000000000000000000e+00
1.314000000000000000e+03 0.000000000000000000e+00
1.315000000000000000e+03 0.000000000000000000e+00
1.316000000000000000e+03 0.000000000000000000e+00
1.317000000000000000e+03 0.000000000000000000e+00
1.318000000000000000e+03 0.000000000000000000e+00
1.319000000000000000e+03 0.000000000000000000e+00
1.320000000000000000e+03 0.000000000000000000e+00
1.321000000000000000e+03 0.000000000000000000e+00
1.322000000000000000e+03 0.000000000000000000e+00
1.323000000000000000e+03 0.000000000000000000e+00
1.324000000000000000e+03 0.000000000000000000e+00
1.325000000000000000e+03 0.000000000000000000e+00
1.326000000000000000e+03 0.000000000000000000e+00
1.327000000000000000e+03 0.000000000000000000e+00
1.328000000000000000e+03 0.000000000000000000e+00
1.329000000000000000e+03 0.000000000000000000e+00
1.330000000000000000e+03 0.000000000000000000e+00
1.331000000000000000e+03 0.000000000000000000e+00
1.332000000000000000e+03 0.000000000000000000e+00
1.333000000000000000e+03 0.000000000000000000e+00
1.334000000000000000e+03 0.000000000000000000e+00
1.335000000000000000e+03 0.000000000000000000e+00
1.336000000000000000e+03 0.000000000000000000e+00
1.337000000000000000e+03 0.000000000000000000e+00
1.338000000000000000e+03 0.000000000000000000e+00
1.339000000000000000e+03 0.000000000000000000e+00
1.340000000000000000e+03 0.000000000000000000e+00
1.341000000000000000e+03 0.000000000000000000e+00
1.342000000000000000e+03 0.000000000000000000e+00
1.343000000000000000e+03 0.000000000000000000e+00
1.344000000000000000e+03 0.000000000000000000e+00
1.345000000000000000e+03 0.000000000000000000e+00
1.346000000000000000e+03 0.000000000000000000e+00
1.347000000000000000e+03 0.000000000000000000e+00
1.348000000000000000e+03 0.000000000000000000e+00
1.349000000000000000e+03 0.000000000000000000e+00
1.350000000000000000e+03 0.000000000000000000e+00
1.351000000000000000e+03 0.000000000000000000e+00
1.352000000000000000e+03 0.000000000000000000e+00
1.353000000000000000e+03 0.000000000000000000e+00
1.354000000000000000e+03 0.000000000000000000e+00
1.355000000000000000e+03 0.000000000000000000e+00
1.356000000000000000e+03 0.000000000000000000e+00
1.357000000000000000e+03 0.000000000000000000e+00
1.358000000000000000e+03 0.000000000000000000e+00
1.359000000000000000e+03 0.000000000000000000e+00
1.360000000000000000e+03 0.000000000000000000e+00
1.361000000000000000e+03 0.000000000000000000e+00
1.362000000000000000e+03 0.000000000000000000e+00
1.363000000000000000e+03 0.000000000000000000e+00
1.364000000000000000e+03 0.000000000000000000e+00
1.365000000000000000e+03 0.000000000000000000e+00
1.366000000000000000e+03 0.000000000000000000e+00
1.367000000000000000e+03 0.000000000000000000e+00
1.368000000000000000e+03 0.000000000000000000e+00
1.369000000000000000e+03 0.000000000000000000e+00
1.370000000000000000e+03 0.000000000000000000e+00
1.371000000000000000e+03 0.000000000000000000e+00
1.372000000000000000e+03 0.000000000000000000e+00
1.373000000000000000e+03 0.000000000000000000e+00
1.374000000000000000e+03 0.000000000000000000e+00
1.375000000000000000e+03 0.000000000000000000e+00
1.376000000000000000e+03 0.000000000000000000e+00
1.377000000000000000e+03 0.000000000000000000e+00
1.378000000000000000e+03 0.000000000000000000e+00
1.379000000000000000e+03 0.000000000000000000e+00
1.380000000000000000e+03 0.000000000000000000e+00
1.381000000000000000e+03 0.000000000000000000e+00
1.382000000000000000e+03 0.000000000000000000e+00
1.383000000000000000e+03 0.000000000000000000e+00
1.384000000000000000e+03 0.000000000000000000e+00
1.385000000000000000e+03 0.000000000000000000e+00
1.386000000000000000e+03 0.000000000000000000e+00
1.387000000000000000e+03 0.000000000000000000e+00
1.388000000000000000e+03 0.000000000000000000e+00
1.389000000000000000e+03 0.000000000000000000e+00
1.390000000000000000e+03 0.000000000000000000e+00
1.391000000000000000e+03 0.000000000000000000e+00
1.392000000000000000e+03 0.000000000000000000e+00
1.393000000000000000e+03 0.000000000000000000e+00
1.394000000000000000e+03 0.000000000000000000e+00
1.395000000000000000e+03 0.000000000000000000e+00
1.396000000000000000e+03 0.000000000000000000e+00
1.397000000000000000e+03 0.000000000000000000e+00
1.398000000000000000e+03 0.000000000000000000e+00
1.399000000000000000e+03 0.000000000000000000e+00
1.400000000000000000e+03 0.000000000000000000e+00
1.401000000000000000e+03 0.000000000000000000e+00
1.402000000000000000e+03 0.000000000000000000e+00
1.403000000000000000e+03 0.000000000000000000e+00
1.404000000000000000e+03 0.000000000000000000e+00
1.405000000000000000e+03 0.000000000000000000e+00
1.406000000000000000e+03 0.000000000000000000e+00
1.407000000000000000e+03 0.000000000000000000e+00
1.408000000000000000e+03 0.000000000000000000e+00
1.409000000000000000e+03 0.000000000000000000e+00
1.410000000000000000e+03 0.000000000000000000e+00
1.411000000000000000e+03 0.000000000000000000e+00
1.412000000000000000e+03 0.000000000000000000e+00
1.413000000000000000e+03 0.000000000000000000e+00
1.414000000000000000e+03 0.000000000000000000e+00
1.415000000000000000e+03 0.000000000000000000e+00
1.416000000000000000e+03 0.000000000000000000e+00
1.417000000000000000e+03 0.000000000000000000e+00
1.418000000000000000e+03 0.000000000000000000e+00
1.419000000000000000e+03 0.000000000000000000e+00
1.420000000000000000e+03 0.000000000000000000e+00
1.421000000000000000e+03 0.000000000000000000e+00
1.422000000000000000e+03 0.000000000000000000e+00
1.423000000000000000e+03 0.000000000000000000e+00
1.424000000000000000e+03 0.000000000000000000e+00
1.425000000000000000e+03 0.000000000000000000e+00
1.426000000000000000e+03 0.000000000000000000e+00
1.427000000000000000e+03 0.000000000000000000e+00
1.428000000000000000e+03 0.000000000000000000e+00
1.429000000000000000e+03 0.000000000000000000e+00
1.430000000000000000e+03 0.000000000000000000e+00
1.431000000000000000e+03 0.000000000000000000e+00
1.432000000000000000e+03 0.000000000000000000e+00
1.433000000000000000e+03 0.000000000000000000e+00
1.434000000000000000e+03 0.000000000000000000e+00
1.435000000000000000e+03 0.000000000000000000e+00
1.436000000000000000e+03 0.000000000000000000e+00
1.437000000000000000e+03 0.000000000000000000e+00
1.438000000000000000e+03 0.000000000000000000e+00
1.439000000000000000e+03 0.000000000000000000e+00
1.440000000000000000e+03 0.000000000000000000e+00
1.441000000000000000e+03 0.000000000000000000e+00
1.442000000000000000e+03 0.000000000000000000e+00
1.443000000000000000e+03 0.000000000000000000e+00
1.444000000000000000e+03 0.000000000000000000e+00
1.445000000000000000e+03 0.000000000000000000e+00
1.446000000000000000e+03 0.000000000000000000e+00
1.447000000000000000e+03 0.000000000000000000e+00
1.448000000000000000e+03 0.000000000000000000e+00
1.449000000000000000e+03 0.000000000000000000e+00
1.450000000000000000e+03 0.000000000000000000e+00
1.451000000000000000e+03 0.000000000000000000e+00
1.452000000000000000e+03 0.000000000000000000e+00
1.453000000000000000e+03 0.000000000000000000e+00
1.454000000000000000e+03 0.000000000000000000e+00
1.455000000000000000e+03 0.000000000000000000e+00
1.456000000000000000e+03 0.000000000000000000e+00
1.457000000000000000e+03 0.000000000000000000e+00
1.458000000000000000e+03 0.000000000000000000e+00
1.459000000000000000e+03 0.000000000000000000e+00
1.460000000000000000e+03 0.000000000000000000e+00
1.461000000000000000e+03 0.000000000000000000e+00
1.462000000000000000e+03 0.000000000000000000e+00
1.463000000000000000e+03 0.000000000000000000e+00
1.464000000000000000e+03 0.000000000000000000e+00
1.465000000000000000e+03 0.000000000000000000e+00
1.466000000000000000e+03 0.000000000000000000e+00
1.467000000000000000e+03 0.000000000000000000e+00
1.468000000000000000e+03 0.000000000000000000e+00
1.469000000000000000e+03 0.000000000000000000e+00
1.470000000000000000e+03 0.000000000000000000e+00
1.471000000000000000e+03 0.000000000000000000e+00
1.472000000000000000e+03 0.000000000000000000e+00
1.473000000000000000e+03 0.000000000000000000e+00
1.474000000000000000e+03 0.000000000000000000e+00
1.475000000000000000e+03 0.000000000000000000e+00
1.476000000000000000e+03 0.000000000000000000e+00
1.477000000000000000e+03 0.000000000000000000e+00
1.478000000000000000e+03 0.000000000000000000e+00
1.479000000000000000e+03 0.000000000000000000e+00
1.480000000000000000e+03 0.000000000000000000e+00
1.481000000000000000e+03 0.000000000000000000e+00
1.482000000000000000e+03 0.000000000000000000e+00
1.483000000000000000e+03 0.000000000000000000e+00
1.484000000000000000e+03 0.000000000000000000e+00
1.485000000000000000e+03 0.000000000000000000e+00
1.486000000000000000e+03 0.000000000000000000e+00
1.487000000000000000e+03 0.000000000000000000e+00
1.488000000000000000e+03 0.000000000000000000e+00
1.489000000000000000e+03 0.000000000000000000e+00
1.490000000000000000e+03 0.000000000000000000e+00
1.491000000000000000e+03 0.000000000000000000e+00
1.492000000000000000e+03 0.000000000000000000e+00
1.493000000000000000e+03 0.000000000000000000e+00
1.494000000000000000e+03 0.000000000000000000e+00
1.495000000000000000e+03 0.000000000000000000e+00
1.496000000000000000e+03 0.000000000000000000e+00
1.497000000000000000e+03 0.000000000000000000e+00
1.498000000000000000e+03 0.000000000000000000e+00
1.499000000000000000e+03 0.000000000000000000e+00
1.500000000000000000e+03 0.000000000000000000e+00
