1.010000000000000000e+02 0.000000000000000000e+00
1.020000000000000000e+02 0.000000000000000000e+00
1.030000000000000000e+02 0.000000000000000000e+00
1.040000000000000000e+02 0.000000000000000000e+00
1.050000000000000000e+02 0.000000000000000000e+00
1.060000000000000000e+02 0.000000000000000000e+00
1.070000000000000000e+02 0.000000000000000000e+00
1.080000000000000000e+02 0.000000000000000000e+00
1.090000000000000000e+02 0.000000000000000000e+00
1.100000000000000000e+02 0.000000000000000000e+00
1.110000000000000000e+02 0.000000000000000000e+00
1.120000000000000000e+02 0.000000000000000000e+00
1.130000000000000000e+02 0.000000000000000000e+00
1.140000000000000000e+02 0.000000000000000000e+00
1.150000000000000000e+02 0.000000000000000000e+00
1.160000000000000000e+02 0.000000000000000000e+00
1.170000000000000000e+02 0.000000000000000000e+00
1.180000000000000000e+02 0.000000000000000000e+00
1.190000000000000000e+02 0.000000000000000000e+00
1.200000000000000000e+02 0.000000000000000000e+00
1.210000000000000000e+02 0.000000000000000000e+00
1.220000000000000000e+02 0.000000000000000000e+00
1.230000000000000000e+02 0.000000000000000000e+00
1.240000000000000000e+02 0.000000000000000000e+00
1.250000000000000000e+02 0.000000000000000000e+00
1.260000000000000000e+02 0.000000000000000000e+00
1.270000000000000000e+02 0.000000000000000000e+00
1.280000000000000000e+02 0.000000000000000000e+00
1.290000000000000000e+02 0.000000000000000000e+00
1.300000000000000000e+02 0.000000000000000000e+00
1.310000000000000000e+02 0.000000000000000000e+00
1.320000000000000000e+02 0.000000000000000000e+00
1.330000000000000000e+02 0.000000000000000000e+00
1.340000000000000000e+02 0.000000000000000000e+00
1.350000000000000000e+02 0.000000000000000000e+00
1.360000000000000000e+02 0.000000000000000000e+00
1.370000000000000000e+02 0.000000000000000000e+00
1.380000000000000000e+02 0.000000000000000000e+00
1.390000000000000000e+02 0.000000000000000000e+00
1.400000000000000000e+02 0.000000000000000000e+00
1.410000000000000000e+02 0.000000000000000000e+00
1.420000000000000000e+02 0.000000000000000000e+00
1.430000000000000000e+02 0.000000000000000000e+00
1.440000000000000000e+02 0.000000000000000000e+00
1.450000000000000000e+02 0.000000000000000000e+00
1.460000000000000000e+02 0.000000000000000000e+00
1.470000000000000000e+02 1.260009046188095561e-01
1.480000000000000000e+02 3.206631458730828665e+00
1.490000000000000000e+02 3.767166617299321008e+00
1.500000000000000000e+02 1.951924321924927375e+00
1.510000000000000000e+02 6.882878938199900043e-01
1.520000000000000000e+02 4.469166502053577572e-01
1.530000000000000000e+02 2.543137041692593581e+00
1.540000000000000000e+02 2.512191793446725718e+00
1.550000000000000000e+02 2.055037383945256035e+00
1.560000000000000000e+02 1.080275337564817306e+01
1.570000000000000000e+02 2.953773082762914726e+00
1.580000000000000000e+02 5.488795507155920239e-01
1.590000000000000000e+02 4.203867321924900757e+00
1.600000000000000000e+02 4.790374024061400782e+00
1.610000000000000000e+02 5.002095425430408859e+00
1.620000000000000000e+02 4.066678823895460759e+00
1.630000000000000000e+02 5.045779660858690008e+00
1.640000000000000000e+02 7.927800483509645169e+00
1.650000000000000000e+02 5.061762832399896439e+00
1.660000000000000000e+02 3.266062337067001220e+00
1.670000000000000000e+02 2.774535591163661774e+00
1.680000000000000000e+02 3.028176840904369449e+00
1.690000000000000000e+02 3.942858129848584525e+00
1.700000000000000000e+02 5.242056129018875410e+00
1.710000000000000000e+02 4.077595882206565214e+00
1.720000000000000000e+02 3.717659428126917298e+00
1.730000000000000000e+02 6.372359722464212339e+00
1.740000000000000000e+02 4.318010084197423382e+00
1.750000000000000000e+02 3.618056657332499260e+00
1.760000000000000000e+02 5.386189969508370368e+00
1.770000000000000000e+02 8.288357304230649092e+00
1.780000000000000000e+02 1.245428946276707194e+01
1.790000000000000000e+02 1.126929699025099296e+01
1.800000000000000000e+02 6.780202466196650235e+00
1.810000000000000000e+02 4.267224326695704839e+00
1.820000000000000000e+02 6.733677154532269782e+00
1.830000000000000000e+02 4.205761431653186833e+00
1.840000000000000000e+02 4.793247877618726172e+00
1.850000000000000000e+02 7.850596123210933364e+00
1.860000000000000000e+02 8.987991608587419634e+00
1.870000000000000000e+02 6.297146666874088972e+00
1.880000000000000000e+02 3.588315279817474224e+00
1.890000000000000000e+02 2.338638837170711415e+00
1.900000000000000000e+02 2.788958726197897420e+00
1.910000000000000000e+02 4.175882347438292896e+00
1.920000000000000000e+02 2.297094407799224580e+00
1.930000000000000000e+02 4.182626867869687182e+00
1.940000000000000000e+02 6.873994879900436672e+00
1.950000000000000000e+02 3.755330771001852419e+00
1.960000000000000000e+02 8.905887867662340973e-01
1.970000000000000000e+02 3.581231430941482774e-01
1.980000000000000000e+02 6.163090524787346869e-01
1.990000000000000000e+02 4.796474355942775825e-01
2.000000000000000000e+02 9.119238855246788455e-01
2.010000000000000000e+02 1.038971010993569921e+00
2.020000000000000000e+02 8.872077347023485938e-01
2.030000000000000000e+02 1.284710400248873174e+00
2.040000000000000000e+02 2.472346204107031209e+00
2.050000000000000000e+02 9.916040157643596364e-01
2.060000000000000000e+02 1.854517402115310354e+00
2.070000000000000000e+02 1.282181398050211474e+00
2.080000000000000000e+02 4.452616163658998261e+00
2.090000000000000000e+02 2.545815184570874301e-01
2.100000000000000000e+02 2.971354725160722410e+00
2.110000000000000000e+02 4.435206397635308662e+00
2.120000000000000000e+02 3.430682752126131607e+00
2.130000000000000000e+02 6.052463344119477284e+00
2.140000000000000000e+02 1.899715110765419768e+00
2.150000000000000000e+02 3.539693988384128520e+00
2.160000000000000000e+02 7.328201480190831063e+00
2.170000000000000000e+02 6.380267525202237167e+00
2.180000000000000000e+02 5.637243432185814918e+00
2.190000000000000000e+02 7.332376225471863407e+00
2.200000000000000000e+02 7.910464859365266221e+00
2.210000000000000000e+02 6.349211741600990777e+00
2.220000000000000000e+02 4.832089835096456731e+00
2.230000000000000000e+02 4.651062965982159625e+00
2.240000000000000000e+02 5.887971910599475223e+00
2.250000000000000000e+02 6.056024539514605287e+00
2.260000000000000000e+02 3.485872820161791452e+00
2.270000000000000000e+02 2.787722558805224349e+00
2.280000000000000000e+02 3.916054610454256402e+00
2.290000000000000000e+02 5.202582117610461410e+00
2.300000000000000000e+02 5.849107356979879491e+00
2.310000000000000000e+02 5.946741027380215705e+00
2.320000000000000000e+02 3.472286470441847683e+00
2.330000000000000000e+02 2.085074667081516786e+00
2.340000000000000000e+02 2.080938609831985531e+00
2.350000000000000000e+02 1.966694731798382945e+00
2.360000000000000000e+02 2.623743061605633420e-01
2.370000000000000000e+02 2.222872648828069231e+00
2.380000000000000000e+02 2.906403791787627533e+00
2.390000000000000000e+02 1.909167379589293834e+00
2.400000000000000000e+02 3.325483880522707381e+00
2.410000000000000000e+02 3.430469556615515003e+00
2.420000000000000000e+02 2.356802660858733134e+00
2.430000000000000000e+02 1.758297431030907187e+00
2.440000000000000000e+02 2.229257998755703518e+00
2.450000000000000000e+02 1.386543536403241905e+00
2.460000000000000000e+02 2.328539457374005472e+00
2.470000000000000000e+02 3.593199284114477088e+00
2.480000000000000000e+02 3.980531101223812485e+00
2.490000000000000000e+02 3.351701237087747920e+00
2.500000000000000000e+02 2.670800006636244284e+00
2.510000000000000000e+02 2.366850425845259842e+00
2.520000000000000000e+02 1.964362930719768752e+00
2.530000000000000000e+02 1.553556249740705386e+00
2.540000000000000000e+02 3.005689406969522359e+00
2.550000000000000000e+02 3.576028328147686342e+00
2.560000000000000000e+02 2.578667526654197850e+00
2.570000000000000000e+02 1.281719184816420887e+00
2.580000000000000000e+02 1.629311256947322928e+00
2.590000000000000000e+02 3.068442129433697652e+00
2.600000000000000000e+02 3.920007400954146792e+00
2.610000000000000000e+02 3.460095641227707297e+00
2.620000000000000000e+02 2.575502842563787809e+00
2.630000000000000000e+02 3.069700960796521549e+00
2.640000000000000000e+02 1.781396009334168973e+00
2.650000000000000000e+02 2.828872082970346646e+00
2.660000000000000000e+02 7.016047374310449003e-01
2.670000000000000000e+02 4.730316021572349428e-01
2.680000000000000000e+02 8.188494729309269138e-01
2.690000000000000000e+02 3.292865364032360187e-01
2.700000000000000000e+02 1.281849656088004608e+00
2.710000000000000000e+02 2.977389783447417670e+00
2.720000000000000000e+02 2.175749526446791648e+00
2.730000000000000000e+02 3.095376578095844877e+00
2.740000000000000000e+02 3.211465090022799895e+00
2.750000000000000000e+02 2.675309868077155429e+00
2.760000000000000000e+02 2.889122826384553644e+00
2.770000000000000000e+02 4.512589991288074032e+00
2.780000000000000000e+02 4.023788469099966569e+00
2.790000000000000000e+02 5.718278148309436482e+00
2.800000000000000000e+02 7.866300984235655491e+00
2.810000000000000000e+02 7.267716763790931012e+00
2.820000000000000000e+02 1.031271445550715171e+01
2.830000000000000000e+02 9.255256880522743757e+00
2.840000000000000000e+02 6.256554232268770832e+00
2.850000000000000000e+02 5.094050601327526628e+00
2.860000000000000000e+02 6.527734657125078499e+00
2.870000000000000000e+02 8.174023413728763288e+00
2.880000000000000000e+02 8.827412801078615701e+00
2.890000000000000000e+02 9.207787847956860006e+00
2.900000000000000000e+02 1.037708074699290783e+01
2.910000000000000000e+02 1.270465779713755694e+01
2.920000000000000000e+02 1.380242363824934948e+01
2.930000000000000000e+02 1.577385776602358725e+01
2.940000000000000000e+02 1.869749070939632318e+01
2.950000000000000000e+02 2.142218352209092558e+01
2.960000000000000000e+02 2.412669971997507901e+01
2.970000000000000000e+02 2.702057639701302350e+01
2.980000000000000000e+02 2.813366352831363670e+01
2.990000000000000000e+02 2.988370703795892069e+01
3.000000000000000000e+02 3.626023017423766959e+01
3.010000000000000000e+02 3.869808499481433728e+01
3.020000000000000000e+02 4.082855305745697905e+01
3.030000000000000000e+02 4.398847370877411578e+01
3.040000000000000000e+02 4.762701056627253848e+01
3.050000000000000000e+02 5.101272282514008793e+01
3.060000000000000000e+02 5.601434210122386048e+01
3.070000000000000000e+02 6.066094508917466044e+01
3.080000000000000000e+02 6.496657869321728640e+01
3.090000000000000000e+02 7.050651177971388961e+01
3.100000000000000000e+02 7.864780817710492045e+01
3.110000000000000000e+02 8.811112232731777283e+01
3.120000000000000000e+02 9.320444585148310068e+01
3.130000000000000000e+02 9.095268835338033853e+01
3.140000000000000000e+02 8.153826227753596356e+01
3.150000000000000000e+02 6.439934499274049529e+01
3.160000000000000000e+02 4.384239190584828094e+01
3.170000000000000000e+02 2.809056100601543449e+01
3.180000000000000000e+02 1.976837141257006536e+01
3.190000000000000000e+02 1.542983405724950785e+01
3.200000000000000000e+02 1.223831215722878518e+01
3.210000000000000000e+02 9.438169959759395766e+00
3.220000000000000000e+02 7.055301292055562001e+00
3.230000000000000000e+02 4.784712589296789886e+00
3.240000000000000000e+02 1.424402240406542397e+00
3.250000000000000000e+02 6.526045886745566182e-01
3.260000000000000000e+02 2.208114679112272771e+00
3.270000000000000000e+02 2.047920228375809337e+00
3.280000000000000000e+02 1.380737515245748170e+00
3.290000000000000000e+02 6.125506355528078650e-01
3.300000000000000000e+02 9.069802281684529177e-01
3.310000000000000000e+02 2.051349548226503394e+00
3.320000000000000000e+02 1.863560051649043814e+00
3.330000000000000000e+02 1.770644471795910446e+00
3.340000000000000000e+02 3.001404901265301017e+00
3.350000000000000000e+02 8.453494044803873120e-01
3.360000000000000000e+02 1.056644990460413602e+00
3.370000000000000000e+02 1.118451978220285969e+00
3.380000000000000000e+02 5.813176898983610785e-01
3.390000000000000000e+02 1.913237850062224910e+00
3.400000000000000000e+02 2.400830976768301372e+00
3.410000000000000000e+02 7.251637280647008632e-01
3.420000000000000000e+02 1.588798801908318348e+00
3.430000000000000000e+02 1.583903840074670777e+00
3.440000000000000000e+02 2.028077557145830490e+00
3.450000000000000000e+02 4.370003825798444375e+00
3.460000000000000000e+02 5.138380917237152623e+00
3.470000000000000000e+02 3.432756771831608766e+00
3.480000000000000000e+02 5.923430637080070227e+00
3.490000000000000000e+02 7.471857848579101180e+00
3.500000000000000000e+02 1.083649292719340096e+01
3.510000000000000000e+02 1.496430063459148840e+01
3.520000000000000000e+02 1.756402083177760787e+01
3.530000000000000000e+02 2.045716367558593518e+01
3.540000000000000000e+02 2.231289350269597094e+01
3.550000000000000000e+02 2.326351686994399515e+01
3.560000000000000000e+02 2.542685655258242505e+01
3.570000000000000000e+02 2.929020378681048342e+01
3.580000000000000000e+02 2.905395860817258935e+01
3.590000000000000000e+02 3.149062606720597657e+01
3.600000000000000000e+02 3.326216501555695260e+01
3.610000000000000000e+02 3.552867434142304148e+01
3.620000000000000000e+02 4.138011780128606887e+01
3.630000000000000000e+02 4.363253891516280447e+01
3.640000000000000000e+02 5.257261477909173664e+01
3.650000000000000000e+02 5.823638562124039453e+01
3.660000000000000000e+02 5.727869462767063169e+01
3.670000000000000000e+02 5.648758416303672192e+01
3.680000000000000000e+02 5.701526210952086160e+01
3.690000000000000000e+02 6.089544408214057825e+01
3.700000000000000000e+02 6.716430506326477712e+01
3.710000000000000000e+02 7.274710001659397562e+01
3.720000000000000000e+02 7.366438636175067245e+01
3.730000000000000000e+02 7.819614472308646214e+01
3.740000000000000000e+02 8.373883143508913918e+01
3.750000000000000000e+02 8.829055833022196964e+01
3.760000000000000000e+02 9.235065478946278006e+01
3.770000000000000000e+02 9.918202093529660601e+01
3.780000000000000000e+02 1.061313706907281897e+02
3.790000000000000000e+02 1.178698171956027352e+02
3.800000000000000000e+02 1.315138392783075858e+02
3.810000000000000000e+02 1.440474759593448653e+02
3.820000000000000000e+02 1.575941396390793159e+02
3.830000000000000000e+02 1.755474221484858504e+02
3.840000000000000000e+02 1.956876571665624738e+02
3.850000000000000000e+02 2.227890644057259237e+02
3.860000000000000000e+02 2.586052472516072385e+02
3.870000000000000000e+02 2.981746383322955012e+02
3.880000000000000000e+02 3.522189354075906067e+02
3.890000000000000000e+02 4.129055850445965348e+02
3.900000000000000000e+02 4.823178171333743762e+02
3.910000000000000000e+02 5.601920333540750789e+02
3.920000000000000000e+02 6.378193353453646068e+02
3.930000000000000000e+02 7.109749338104129492e+02
3.940000000000000000e+02 7.795146136071351748e+02
3.950000000000000000e+02 8.509520334992753305e+02
3.960000000000000000e+02 9.294129982576238262e+02
3.970000000000000000e+02 1.011094694088363894e+03
3.980000000000000000e+02 1.101933685749846745e+03
3.990000000000000000e+02 1.211336666044391677e+03
4.000000000000000000e+02 1.337503497926173168e+03
4.010000000000000000e+02 1.480395870566268741e+03
4.020000000000000000e+02 1.649077739265710306e+03
4.030000000000000000e+02 1.820144178764000571e+03
4.040000000000000000e+02 1.997554010786141362e+03
4.050000000000000000e+02 2.163187962041067294e+03
4.060000000000000000e+02 2.279594561385316410e+03
4.070000000000000000e+02 2.308281295374403726e+03
4.080000000000000000e+02 2.197774570421076078e+03
4.090000000000000000e+02 1.944216619245125457e+03
4.100000000000000000e+02 1.609050510889855559e+03
4.110000000000000000e+02 1.268582905413815070e+03
4.120000000000000000e+02 9.807429159717859193e+02
4.130000000000000000e+02 7.552093051026735111e+02
4.140000000000000000e+02 5.921986797137515168e+02
4.150000000000000000e+02 4.739205163658965603e+02
4.160000000000000000e+02 3.825538920970736854e+02
4.170000000000000000e+02 3.136050632856244533e+02
4.180000000000000000e+02 2.606706326073438618e+02
4.190000000000000000e+02 2.184844320472930121e+02
4.200000000000000000e+02 1.865545332088772170e+02
4.210000000000000000e+02 1.622695741547399848e+02
4.220000000000000000e+02 1.388425338933835462e+02
4.230000000000000000e+02 1.187195919103924808e+02
4.240000000000000000e+02 1.044521077162414997e+02
4.250000000000000000e+02 8.995338701514225477e+01
4.260000000000000000e+02 7.463100486105365405e+01
4.270000000000000000e+02 6.550261788010782027e+01
4.280000000000000000e+02 5.891106102675794176e+01
4.290000000000000000e+02 5.321613072376607079e+01
4.300000000000000000e+02 4.692772329807085185e+01
4.310000000000000000e+02 3.930470464841312861e+01
4.320000000000000000e+02 3.152905051016167448e+01
4.330000000000000000e+02 2.741429687616668787e+01
4.340000000000000000e+02 2.156345472930915719e+01
4.350000000000000000e+02 1.872667560763168737e+01
4.360000000000000000e+02 1.814034641568145645e+01
4.370000000000000000e+02 1.437382639701298359e+01
4.380000000000000000e+02 1.288247691414351870e+01
4.390000000000000000e+02 1.053649672930929349e+01
4.400000000000000000e+02 1.182058366106608105e+01
4.410000000000000000e+02 1.236266406533916573e+01
4.420000000000000000e+02 4.934195422526428843e+00
4.430000000000000000e+02 6.141948561294335640e+00
4.440000000000000000e+02 4.943003618336446969e+00
4.450000000000000000e+02 4.294083479983406448e+00
4.460000000000000000e+02 3.464520486621051276e+00
4.470000000000000000e+02 4.027361532047347481e+00
4.480000000000000000e+02 2.123335628292864818e+00
4.490000000000000000e+02 1.538576103920349158e+00
4.500000000000000000e+02 1.221826380211556762e+00
4.510000000000000000e+02 2.646544897946533137e+00
4.520000000000000000e+02 5.650161460070543207e+00
4.530000000000000000e+02 3.527186974901522554e+00
4.540000000000000000e+02 1.987537361958092275e+00
4.550000000000000000e+02 2.450955201990890231e+00
4.560000000000000000e+02 2.318695296826419838e+00
4.570000000000000000e+02 5.910592837585768589e-01
4.580000000000000000e+02 1.190729591455841896e-01
4.590000000000000000e+02 1.791016116988173035e-01
4.600000000000000000e+02 2.047666436776516830e-01
4.610000000000000000e+02 2.462716437163020300e-01
4.620000000000000000e+02 2.398156811864760041e-01
4.630000000000000000e+02 1.121448785729098674e+00
4.640000000000000000e+02 3.173879427623280680e-01
4.650000000000000000e+02 3.934546826384612284e-01
4.660000000000000000e+02 1.356137895249958758e+00
4.670000000000000000e+02 3.166066791536963354e+00
4.680000000000000000e+02 8.845157809582870900e-01
4.690000000000000000e+02 1.345700174237703106e-01
4.700000000000000000e+02 4.663119408836273183e-01
4.710000000000000000e+02 2.853425238950220155e-01
4.720000000000000000e+02 9.408842655051221637e-01
4.730000000000000000e+02 1.958309613150808870e+00
4.740000000000000000e+02 3.479633690105901622e-01
4.750000000000000000e+02 2.559640014312290379e+00
4.760000000000000000e+02 3.491632420037340978e+00
4.770000000000000000e+02 2.139744885708382949e+00
4.780000000000000000e+02 1.229538998755442814e+00
4.790000000000000000e+02 2.944308285625390820e+00
4.800000000000000000e+02 3.941539000622279243e+00
4.810000000000000000e+02 2.674878054956461693e+00
4.820000000000000000e+02 1.811133984235641092e+00
4.830000000000000000e+02 2.440966568139391946e+00
4.840000000000000000e+02 3.403253523849041784e+00
4.850000000000000000e+02 5.901243450528961709e+00
4.860000000000000000e+02 4.261044962248456081e+00
4.870000000000000000e+02 2.766201103069262590e+00
4.880000000000000000e+02 3.431725085252030905e+00
4.890000000000000000e+02 3.739720379589273946e+00
4.900000000000000000e+02 5.518893280796585143e-01
4.910000000000000000e+02 2.154217712300280585e+00
4.920000000000000000e+02 1.525095261356631982e+00
4.930000000000000000e+02 4.335148655880546320e-01
4.940000000000000000e+02 9.239718373282340691e-02
4.950000000000000000e+02 7.268775826592168698e-01
4.960000000000000000e+02 8.515391775565268606e-01
4.970000000000000000e+02 2.550055257622896310e+00
4.980000000000000000e+02 1.260236765401403947e+00
4.990000000000000000e+02 1.354854198921387143e+00
5.000000000000000000e+02 8.377132619788397738e-01
5.010000000000000000e+02 6.724501499688861905e-01
5.020000000000000000e+02 1.724991947728538033e-01
5.030000000000000000e+02 1.437150277535816256e+00
5.040000000000000000e+02 2.505243196432274999e+00
5.050000000000000000e+02 1.596548988384137280e+00
5.060000000000000000e+02 1.846654882389546559e+00
5.070000000000000000e+02 5.422746905848420118e-01
5.080000000000000000e+02 6.955893947807809674e-01
5.090000000000000000e+02 1.352778842563769901e-01
5.100000000000000000e+02 8.982191449606246048e-01
5.110000000000000000e+02 2.379448856876158480e+00
5.120000000000000000e+02 2.565355983824140207e+00
5.130000000000000000e+02 2.894203617714153243e+00
5.140000000000000000e+02 2.582108500311116384e+00
5.150000000000000000e+02 2.394996822065561304e+00
5.160000000000000000e+02 3.970468373366513593e+00
5.170000000000000000e+02 5.443325522505697123e+00
5.180000000000000000e+02 5.202444248859383613e+00
5.190000000000000000e+02 4.779880532254713543e+00
5.200000000000000000e+02 5.784361769757349947e+00
5.210000000000000000e+02 7.739102832607314575e+00
5.220000000000000000e+02 6.645929112009947737e+00
5.230000000000000000e+02 6.765438595312178727e+00
5.240000000000000000e+02 6.686851328769954250e+00
5.250000000000000000e+02 6.367745255133786308e+00
5.260000000000000000e+02 5.867622824932580805e+00
5.270000000000000000e+02 5.460501913710874788e+00
5.280000000000000000e+02 7.758050985065360727e+00
5.290000000000000000e+02 5.805225255133784401e+00
5.300000000000000000e+02 4.925913491599242633e+00
5.310000000000000000e+02 6.593336563575999065e+00
5.320000000000000000e+02 7.584152841526653255e+00
5.330000000000000000e+02 5.189670052686137680e+00
5.340000000000000000e+02 4.092559449284379980e+00
5.350000000000000000e+02 4.253726327250102024e+00
5.360000000000000000e+02 5.124974039618348520e+00
5.370000000000000000e+02 6.226869332088777576e+00
5.380000000000000000e+02 6.452715801949400642e+00
5.390000000000000000e+02 4.191094278158052688e+00
5.400000000000000000e+02 5.450707863928633934e+00
5.410000000000000000e+02 4.206919609705515484e+00
5.420000000000000000e+02 4.336693340593243740e+00
5.430000000000000000e+02 9.417502352831343515e+00
5.440000000000000000e+02 7.897005733720442677e+00
5.450000000000000000e+02 4.921415035884679767e+00
5.460000000000000000e+02 4.691596871603390007e+00
5.470000000000000000e+02 5.268097625803775053e+00
5.480000000000000000e+02 4.930683723086490389e+00
5.490000000000000000e+02 4.248841989421287657e+00
5.500000000000000000e+02 6.484475513586391848e+00
5.510000000000000000e+02 5.055821918896512557e+00
5.520000000000000000e+02 6.166493801493377447e+00
5.530000000000000000e+02 7.013893313627895587e+00
5.540000000000000000e+02 3.618329956025752026e+00
5.550000000000000000e+02 2.758891394523969254e+00
5.560000000000000000e+02 2.563852460277947998e+00
5.570000000000000000e+02 5.213068911636522529e+00
5.580000000000000000e+02 5.586760955196075962e+00
5.590000000000000000e+02 3.682269434142307674e+00
5.600000000000000000e+02 4.064970929682623968e+00
5.610000000000000000e+02 5.365874854417283402e+00
5.620000000000000000e+02 3.086587917859368257e+00
5.630000000000000000e+02 3.032271666251810771e+00
5.640000000000000000e+02 3.535752519286640805e+00
5.650000000000000000e+02 2.175593120306956951e+00
5.660000000000000000e+02 6.984418226508866123e-01
5.670000000000000000e+02 2.766619899027603635e-01
5.680000000000000000e+02 1.076200359054115818e+00
5.690000000000000000e+02 6.278277971376059474e-01
5.700000000000000000e+02 6.058944251348077348e-01
5.710000000000000000e+02 9.575512887367325643e-01
5.720000000000000000e+02 7.689617390582303980e-01
5.730000000000000000e+02 1.199597699294881359e+00
5.740000000000000000e+02 7.958448251399777851e-01
5.750000000000000000e+02 1.489601334163062063e+00
5.760000000000000000e+02 1.328287088363425461e+00
5.770000000000000000e+02 8.718379632856125827e-01
5.780000000000000000e+02 1.161805808960788999e+00
5.790000000000000000e+02 1.035678306782790381e+00
5.800000000000000000e+02 1.386966919103922224e+00
5.810000000000000000e+02 1.024640274839268006e+00
5.820000000000000000e+02 5.725264428541675388e-01
5.830000000000000000e+02 6.832218276291093240e-01
5.840000000000000000e+02 1.081320881144979484e+00
5.850000000000000000e+02 8.566366726820116018e-01
5.860000000000000000e+02 8.002603671436693267e-01
5.870000000000000000e+02 8.117620236465721284e-01
5.880000000000000000e+02 6.285510684505667411e-01
5.890000000000000000e+02 7.355764641319094410e-02
5.900000000000000000e+02 2.865773650694234398e-01
5.910000000000000000e+02 3.736721574361723253e-01
5.920000000000000000e+02 5.357969305123608805e-01
5.930000000000000000e+02 8.013650242687984093e-01
5.940000000000000000e+02 1.642762138560473373e+00
5.950000000000000000e+02 6.975907147894611082e-01
5.960000000000000000e+02 2.449988350757114741e+00
5.970000000000000000e+02 1.441097153080264537e+00
5.980000000000000000e+02 6.506999278158391853e-01
5.990000000000000000e+02 1.873508560672078049e+00
6.000000000000000000e+02 1.691480336652140037e+00
6.010000000000000000e+02 1.162877419622507791e+00
6.020000000000000000e+02 2.264241661481067869e+00
6.030000000000000000e+02 3.441016217751987849e+00
6.040000000000000000e+02 3.228852842978565008e+00
6.050000000000000000e+02 1.514130496992269093e+00
6.060000000000000000e+02 3.804223871837554838e-01
6.070000000000000000e+02 1.619693948350940271e+00
6.080000000000000000e+02 1.077167241028868849e+00
6.090000000000000000e+02 2.444841277478382591e-01
6.100000000000000000e+02 1.315085376270479056e+00
6.110000000000000000e+02 3.676840165525824045e+00
6.120000000000000000e+02 7.328685582745217975e-01
6.130000000000000000e+02 8.788194420244936911e-01
6.140000000000000000e+02 9.597829838207980746e-01
6.150000000000000000e+02 1.801668261978816910e+00
6.160000000000000000e+02 1.771840332296244824e+00
6.170000000000000000e+02 2.733925328355103268e+00
6.180000000000000000e+02 1.736515943580144272e+00
6.190000000000000000e+02 1.168016455299720535e+00
6.200000000000000000e+02 2.576064839470967316e-01
6.210000000000000000e+02 1.089473450528864129e+00
6.220000000000000000e+02 2.121563790085021939e+00
6.230000000000000000e+02 7.908753571872996213e-01
6.240000000000000000e+02 1.106009545529969218e+00
6.250000000000000000e+02 1.848650825762285121e+00
6.260000000000000000e+02 1.144756370462553630e+00
6.270000000000000000e+02 1.111151943165329392e+00
6.280000000000000000e+02 1.123151666874073529e+00
6.290000000000000000e+02 6.435335016590613133e-01
6.300000000000000000e+02 2.033352772868704861e+00
6.310000000000000000e+02 1.230621927815799488e+00
6.320000000000000000e+02 1.786145262961434721e+00
6.330000000000000000e+02 2.569762151628287583e+00
6.340000000000000000e+02 3.574305054138152471e+00
6.350000000000000000e+02 6.581007833471595347e+00
6.360000000000000000e+02 5.608146921385600336e+00
6.370000000000000000e+02 7.061974042937144702e+00
6.380000000000000000e+02 8.888800041476578429e+00
6.390000000000000000e+02 1.098389904169260411e+01
6.400000000000000000e+02 1.282434017216344557e+01
6.410000000000000000e+02 1.295644650145168342e+01
6.420000000000000000e+02 1.453759837170711222e+01
6.430000000000000000e+02 1.902802164281272468e+01
6.440000000000000000e+02 2.277474662725577303e+01
6.450000000000000000e+02 2.728536307819951645e+01
6.460000000000000000e+02 3.228446028209912555e+01
6.470000000000000000e+02 3.541976820991496311e+01
6.480000000000000000e+02 4.272107964530174229e+01
6.490000000000000000e+02 4.954394397013055595e+01
6.500000000000000000e+02 5.888867866210326696e+01
6.510000000000000000e+02 6.881478095415877760e+01
6.520000000000000000e+02 7.849101372121943143e+01
6.530000000000000000e+02 8.992417517112625092e+01
6.540000000000000000e+02 1.007204009873468493e+02
6.550000000000000000e+02 1.134793893819988710e+02
6.560000000000000000e+02 1.278848386641775932e+02
6.570000000000000000e+02 1.421324850031113840e+02
6.580000000000000000e+02 1.560620416424716836e+02
6.590000000000000000e+02 1.712900359054135606e+02
6.600000000000000000e+02 1.889778306160551438e+02
6.610000000000000000e+02 2.061252613023638389e+02
6.620000000000000000e+02 2.185145959551958299e+02
6.630000000000000000e+02 2.276045936320263081e+02
6.640000000000000000e+02 2.343052060763167788e+02
6.650000000000000000e+02 2.356632370877411802e+02
6.660000000000000000e+02 2.280013465463599971e+02
6.670000000000000000e+02 2.163129544172544740e+02
6.680000000000000000e+02 1.989630657954786273e+02
6.690000000000000000e+02 1.811684919311350939e+02
6.700000000000000000e+02 1.629423720597387444e+02
6.710000000000000000e+02 1.418577166148103004e+02
6.720000000000000000e+02 1.245273611698818712e+02
6.730000000000000000e+02 1.092381147479773489e+02
6.740000000000000000e+02 9.455464984235612746e+01
6.750000000000000000e+02 8.278621112009942351e+01
6.760000000000000000e+02 7.294185573117641752e+01
6.770000000000000000e+02 6.332744647790883619e+01
6.780000000000000000e+02 5.640179075502983608e+01
6.790000000000000000e+02 4.957580239369448805e+01
6.800000000000000000e+02 4.091116932171789244e+01
6.810000000000000000e+02 3.288209846919765056e+01
6.820000000000000000e+02 2.728813062642617382e+01
6.830000000000000000e+02 2.412816269238753009e+01
6.840000000000000000e+02 2.221642445043559633e+01
6.850000000000000000e+02 1.849588805227136490e+01
6.860000000000000000e+02 1.228371840696958195e+01
6.870000000000000000e+02 8.615500611157202115e+00
6.880000000000000000e+02 6.545188595104717955e+00
6.890000000000000000e+02 4.918013447417550310e+00
6.900000000000000000e+02 5.188568993363721127e+00
6.910000000000000000e+02 2.187953492843705217e+00
6.920000000000000000e+02 3.868274270898268141e-01
6.930000000000000000e+02 6.012628919535013772e+00
6.940000000000000000e+02 6.587976750467050557e+00
6.950000000000000000e+02 4.469814561294036676e-02
6.960000000000000000e+02 1.243075404568816378e-01
6.970000000000000000e+02 1.778585917859373033e+00
6.980000000000000000e+02 4.328810012445963862e-01
6.990000000000000000e+02 1.098648804430506359e-01
7.000000000000000000e+02 6.522858330221874557e-01
7.010000000000000000e+02 1.145582652769122189e+00
7.020000000000000000e+02 8.420240854594384095e-01
7.030000000000000000e+02 1.354477574984447097e+00
7.040000000000000000e+02 3.268116641306748615e-01
7.050000000000000000e+02 1.881103104127823444e+00
7.060000000000000000e+02 8.891009228375077456e-01
7.070000000000000000e+02 1.714676238332348390e+00
7.080000000000000000e+02 3.140445632234026618e+00
7.090000000000000000e+02 3.622680832607378498e+00
7.100000000000000000e+02 4.895278955620194772e+00
7.110000000000000000e+02 8.928923260526724803e+00
7.120000000000000000e+02 9.418223125077687996e+00
7.130000000000000000e+02 5.406882861882831293e+00
7.140000000000000000e+02 3.237803827836438941e+00
7.150000000000000000e+02 7.199730131507941167e+00
7.160000000000000000e+02 7.087878605765249418e+00
7.170000000000000000e+02 6.959838663347853505e+00
7.180000000000000000e+02 6.463556706285006115e+00
7.190000000000000000e+02 5.710184593114879803e+00
7.200000000000000000e+02 5.543918960589095057e+00
7.210000000000000000e+02 5.900357343497201867e+00
7.220000000000000000e+02 5.577828147479816145e+00
7.230000000000000000e+02 6.652265224642211372e+00
7.240000000000000000e+02 6.869286778676618077e+00
7.250000000000000000e+02 6.575596564405707056e+00
7.260000000000000000e+02 5.701614789047872556e+00
7.270000000000000000e+02 4.822760609831989065e+00
7.280000000000000000e+02 4.736606955403485308e+00
7.290000000000000000e+02 3.071146259074863050e+00
7.300000000000000000e+02 4.638654031736181516e+00
7.310000000000000000e+02 2.949965495955225059e+00
7.320000000000000000e+02 2.065633011823255760e+00
7.330000000000000000e+02 3.536340379796710565e+00
7.340000000000000000e+02 3.588253092304492409e+00
7.350000000000000000e+02 1.836146472308634703e+00
7.360000000000000000e+02 3.262685187474083204e+00
7.370000000000000000e+02 3.733323414436855003e+00
7.380000000000000000e+02 5.979246769549927620e+00
7.390000000000000000e+02 7.841020418498543698e+00
7.400000000000000000e+02 9.077828483509748025e+00
7.410000000000000000e+02 1.379116712715205573e+01
7.420000000000000000e+02 1.350577188303608267e+01
7.430000000000000000e+02 1.440458303049163113e+01
7.440000000000000000e+02 1.943562864965777237e+01
7.450000000000000000e+02 2.536616620282046597e+01
7.460000000000000000e+02 2.905842282514003472e+01
7.470000000000000000e+02 3.200327216967433941e+01
7.480000000000000000e+02 3.792682259228544694e+01
7.490000000000000000e+02 4.271407797759804481e+01
7.500000000000000000e+02 5.133440774113259408e+01
7.510000000000000000e+02 6.100443492221541675e+01
7.520000000000000000e+02 7.099726200373368101e+01
7.530000000000000000e+02 8.206175538270058212e+01
7.540000000000000000e+02 9.459014174237719885e+01
7.550000000000000000e+02 1.080505348475419680e+02
7.560000000000000000e+02 1.225548716241441838e+02
7.570000000000000000e+02 1.369402582244348139e+02
7.580000000000000000e+02 1.558886588674547511e+02
7.590000000000000000e+02 1.755008784899395948e+02
7.600000000000000000e+02 1.915528555071561811e+02
7.610000000000000000e+02 2.096197912881142997e+02
7.620000000000000000e+02 2.286584569383941243e+02
7.630000000000000000e+02 2.484157928438083331e+02
7.640000000000000000e+02 2.663378623107238923e+02
7.650000000000000000e+02 2.812662119892139003e+02
7.660000000000000000e+02 2.901403758556315893e+02
7.670000000000000000e+02 2.895618071561915485e+02
7.680000000000000000e+02 2.803764131922837919e+02
7.690000000000000000e+02 2.625256934660861248e+02
7.700000000000000000e+02 2.397033986309899660e+02
7.710000000000000000e+02 2.121209364447212238e+02
7.720000000000000000e+02 1.809955156191666958e+02
7.730000000000000000e+02 1.512526887782624954e+02
7.740000000000000000e+02 1.278917235013485083e+02
7.750000000000000000e+02 1.089784998962874596e+02
7.760000000000000000e+02 9.010857860016633936e+01
7.770000000000000000e+02 7.661576769757317606e+01
7.780000000000000000e+02 6.573574304086295683e+01
7.790000000000000000e+02 5.688551744919139708e+01
7.800000000000000000e+02 5.023051004563356514e+01
7.810000000000000000e+02 4.381636666459234419e+01
7.820000000000000000e+02 4.026424145790139164e+01
7.830000000000000000e+02 3.428913977598020324e+01
7.840000000000000000e+02 3.345015879900429212e+01
7.850000000000000000e+02 3.030205956864389094e+01
7.860000000000000000e+02 2.565837542003738747e+01
7.870000000000000000e+02 2.487060253474387039e+01
7.880000000000000000e+02 2.307048077561182708e+01
7.890000000000000000e+02 2.118548417755657809e+01
7.900000000000000000e+02 1.991399828251405069e+01
7.910000000000000000e+02 1.823822177971376846e+01
7.920000000000000000e+02 1.709062792574155054e+01
7.930000000000000000e+02 1.667579246836756468e+01
7.940000000000000000e+02 1.615971852312797807e+01
7.950000000000000000e+02 1.504362700062225322e+01
7.960000000000000000e+02 1.154824370047705173e+01
7.970000000000000000e+02 9.304303964944983463e+00
7.980000000000000000e+02 7.926535270068414185e+00
7.990000000000000000e+02 8.370049894835151605e+00
8.000000000000000000e+02 8.899486166770406825e+00
8.010000000000000000e+02 7.550951719767724946e+00
8.020000000000000000e+02 7.501608026757939029e+00
8.030000000000000000e+02 7.522584431860626530e+00
8.040000000000000000e+02 6.940874836963312866e+00
8.050000000000000000e+02 6.197688895479067206e+00
8.060000000000000000e+02 6.660621036506920056e+00
8.070000000000000000e+02 6.594495784899456758e+00
8.080000000000000000e+02 4.920855861468257153e+00
8.090000000000000000e+02 6.705518682016180954e+00
8.100000000000000000e+02 5.631570250777842901e+00
8.110000000000000000e+02 4.602104739734539152e+00
8.120000000000000000e+02 4.039387792781609754e+00
8.130000000000000000e+02 4.378880442439323062e+00
8.140000000000000000e+02 3.203123978017444529e+00
8.150000000000000000e+02 2.485266787181043213e+00
8.160000000000000000e+02 1.803169281476761920e+00
8.170000000000000000e+02 2.114495462974473661e+00
8.180000000000000000e+02 1.665849650280056826e+00
8.190000000000000000e+02 1.701084399087323007e+00
8.200000000000000000e+02 1.101810569176511878e+00
8.210000000000000000e+02 2.049236496577188094e-01
8.220000000000000000e+02 1.557867370877372037e+00
8.230000000000000000e+02 2.657279401369009975e+00
8.240000000000000000e+02 2.109467900643024141e+00
8.250000000000000000e+02 3.244233872406223629e-01
8.260000000000000000e+02 7.690500493673811944e-01
8.270000000000000000e+02 4.796891126321971566e-01
8.280000000000000000e+02 1.108355334577908913e+00
8.290000000000000000e+02 9.483993306367553000e-01
8.300000000000000000e+02 1.275828484961588405e+00
8.310000000000000000e+02 2.331842472003483047e-01
8.320000000000000000e+02 1.911989751088830625e-01
8.330000000000000000e+02 3.054424540551903822e-01
8.340000000000000000e+02 5.435721756532537752e-01
8.350000000000000000e+02 2.716404167185388907e-01
8.360000000000000000e+02 2.064196409458546877e-01
8.370000000000000000e+02 9.484128245541521007e-01
8.380000000000000000e+02 9.085953314665107250e-01
8.390000000000000000e+02 1.667459939639049482e+00
8.400000000000000000e+02 1.544576206345903646e+00
8.410000000000000000e+02 5.068835955195948317e-01
8.420000000000000000e+02 2.193375847334565476e-01
8.430000000000000000e+02 1.132177001244264181e-01
8.440000000000000000e+02 7.821990960381358660e-01
8.450000000000000000e+02 3.509588027380179942e-01
8.460000000000000000e+02 2.295526733043033729e-01
8.470000000000000000e+02 1.640558404895512135e-01
8.480000000000000000e+02 1.788058273387287400e+00
8.490000000000000000e+02 2.194046039203436660e+00
8.500000000000000000e+02 1.340280253889237772e+00
8.510000000000000000e+02 1.436844347853138748e+00
8.520000000000000000e+02 1.068611936735087919e+00
8.530000000000000000e+02 2.040610766438493151e+00
8.540000000000000000e+02 1.181527718730560617e+00
8.550000000000000000e+02 9.032180528935874753e-01
8.560000000000000000e+02 6.468839682638334310e-01
8.570000000000000000e+02 1.491965872044796360e+00
8.580000000000000000e+02 1.512771167185226640e+00
8.590000000000000000e+02 2.093398297448665346e+00
8.600000000000000000e+02 1.915830136043138898e+00
8.610000000000000000e+02 1.141045389545743971e+00
8.620000000000000000e+02 1.986723909769754215e+00
8.630000000000000000e+02 2.225120732061386608e+00
8.640000000000000000e+02 1.552174146235244301e+00
8.650000000000000000e+02 1.578610437046257475e+00
8.660000000000000000e+02 1.678254938614669456e+00
8.670000000000000000e+02 2.141262714789467836e+00
8.680000000000000000e+02 2.045635886745490239e+00
8.690000000000000000e+02 1.524213254666108908e+00
8.700000000000000000e+02 1.028572988799004717e+00
8.710000000000000000e+02 2.075785723086492229e+00
8.720000000000000000e+02 2.842423549263622284e+00
8.730000000000000000e+02 9.904922881145000746e-01
8.740000000000000000e+02 9.980676652146840411e-01
8.750000000000000000e+02 1.279973683468162093e+00
8.760000000000000000e+02 2.913180938187090341e+00
8.770000000000000000e+02 2.376128057871838894e+00
8.780000000000000000e+02 1.442645794648413471e+00
8.790000000000000000e+02 1.621760159510469590e+00
8.800000000000000000e+02 1.954629061812903634e+00
8.810000000000000000e+02 2.541475325451143075e+00
8.820000000000000000e+02 5.760314583696294122e+00
8.830000000000000000e+02 2.137608172163556919e+00
8.840000000000000000e+02 2.738643893797952700e+00
8.850000000000000000e+02 4.836486503215091659e+00
8.860000000000000000e+02 4.872780353173001622e+00
8.870000000000000000e+02 2.386806550715566910e+00
8.880000000000000000e+02 1.644928774696240159e-01
8.890000000000000000e+02 1.274032330568235061e+00
8.900000000000000000e+02 2.525828723086474437e+00
8.910000000000000000e+02 2.318972163659067220e+00
8.920000000000000000e+02 2.154782234757370851e+00
8.930000000000000000e+02 2.444408515453187380e+00
8.940000000000000000e+02 2.223178453847696190e+00
8.950000000000000000e+02 2.720575848195755597e+00
8.960000000000000000e+02 2.165042739887999002e+00
8.970000000000000000e+02 3.047708039203468111e+00
8.980000000000000000e+02 2.957229622277565362e+00
8.990000000000000000e+02 2.203261506948742010e+00
9.000000000000000000e+02 2.603180816428113165e+00
9.010000000000000000e+02 2.648534852520196381e+00
9.020000000000000000e+02 2.807465390997719634e+00
9.030000000000000000e+02 2.266556765401384954e+00
9.040000000000000000e+02 1.857522129641165476e+00
9.050000000000000000e+02 1.996573368388289138e+00
9.060000000000000000e+02 2.522168273802106508e+00
9.070000000000000000e+02 2.286499610661682169e+00
9.080000000000000000e+02 2.173203887160262138e+00
9.090000000000000000e+02 2.305050996266365448e+00
9.100000000000000000e+02 2.611208013067811251e+00
9.110000000000000000e+02 3.243083065753980865e+00
9.120000000000000000e+02 3.795441613853120177e+00
9.130000000000000000e+02 4.584151330844227878e+00
9.140000000000000000e+02 2.953362729309256807e+00
9.150000000000000000e+02 2.690213770634603208e+00
9.160000000000000000e+02 2.591727099356973874e+00
9.170000000000000000e+02 2.500978929060361011e+00
9.180000000000000000e+02 2.552678304852745939e+00
9.190000000000000000e+02 2.549658226509053716e+00
9.200000000000000000e+02 2.675775199751067479e+00
9.210000000000000000e+02 2.129072075072694581e+00
9.220000000000000000e+02 3.441249334163022922e-01
9.230000000000000000e+02 1.474436261356637967e+00
9.240000000000000000e+02 4.089231370385595810e+00
9.250000000000000000e+02 4.781430901887654628e+00
9.260000000000000000e+02 3.724402799004336018e+00
9.270000000000000000e+02 4.048054196847131969e+00
9.280000000000000000e+02 4.020499947106395133e+00
9.290000000000000000e+02 4.550901225471906564e+00
9.300000000000000000e+02 3.189853944202453384e+00
9.310000000000000000e+02 2.244243004978222711e+00
9.320000000000000000e+02 1.065993616054770055e+00
9.330000000000000000e+02 2.503309863098971411e-01
9.340000000000000000e+02 1.005299147332962217e+00
9.350000000000000000e+02 3.384492199958529124e+00
9.360000000000000000e+02 1.974352281684226273e+00
9.370000000000000000e+02 3.018241854386540801e-01
9.380000000000000000e+02 1.118120529241001027e+00
9.390000000000000000e+02 1.310630544492813243e+00
9.400000000000000000e+02 3.231918440157636740e-01
9.410000000000000000e+02 6.914093666528463578e-01
9.420000000000000000e+02 3.835345227131310430e-01
9.430000000000000000e+02 8.347990997718495176e-01
9.440000000000000000e+02 3.297507778930026667e-01
9.450000000000000000e+02 1.007677531217586964e+00
9.460000000000000000e+02 4.027785444928371206e-01
9.470000000000000000e+02 1.295758167150562912e+00
9.480000000000000000e+02 7.505371296411397219e-01
9.490000000000000000e+02 1.192773549056199422e-01
9.500000000000000000e+02 5.101203288281137560e-01
9.510000000000000000e+02 1.683038823895485425e+00
9.520000000000000000e+02 1.531684840074662990e+00
9.530000000000000000e+02 1.275323751918714388e+00
9.540000000000000000e+02 2.407276945654480027e+00
9.550000000000000000e+02 4.281175023646574651e+00
9.560000000000000000e+02 4.942704955195998728e+00
9.570000000000000000e+02 2.851423672474495685e+00
9.580000000000000000e+02 7.890971514208680038e-01
9.590000000000000000e+02 9.456172613565652085e-01
9.600000000000000000e+02 1.103323796515234934e+00
9.610000000000000000e+02 1.762372283758558922e+00
9.620000000000000000e+02 6.372238931756831759e-01
9.630000000000000000e+02 5.700153304293731349e-01
9.640000000000000000e+02 1.485378795892971393e+00
9.650000000000000000e+02 1.714755222153076186e+00
9.660000000000000000e+02 2.151232653391430993e+00
9.670000000000000000e+02 2.944707911240144416e+00
9.680000000000000000e+02 2.356971413399700399e+00
9.690000000000000000e+02 2.302560115121349948e+00
9.700000000000000000e+02 3.690694389879745518e+00
9.710000000000000000e+02 7.630657070524842212e+00
9.720000000000000000e+02 9.343151227961003613e+00
9.730000000000000000e+02 5.870902103898735902e+00
9.740000000000000000e+02 3.518153465463604412e+00
9.750000000000000000e+02 4.741312103712924220e+00
9.760000000000000000e+02 7.334213962671141118e+00
9.770000000000000000e+02 1.062086429786351438e+01
9.780000000000000000e+02 3.732998370877430361e+00
9.790000000000000000e+02 2.971179237087762548e+00
9.800000000000000000e+02 5.099535103090650168e+00
9.810000000000000000e+02 5.799263320265509947e+00
9.820000000000000000e+02 4.254827790292448064e+00
9.830000000000000000e+02 2.084146307405104093e+00
9.840000000000000000e+02 1.988249881352393222e+00
9.850000000000000000e+02 4.028943935697993695e+00
9.860000000000000000e+02 4.486295692802323209e+00
9.870000000000000000e+02 3.885675357187312162e+00
9.880000000000000000e+02 3.983733831362787914e+00
9.890000000000000000e+02 5.017262761875118215e+00
9.900000000000000000e+02 5.234978914955408236e+00
9.910000000000000000e+02 4.858093954781167234e+00
9.920000000000000000e+02 4.543585378344745074e+00
9.930000000000000000e+02 4.523228631688078316e+00
9.940000000000000000e+02 4.425119078821842855e+00
9.950000000000000000e+02 1.336680715826572108e+00
9.960000000000000000e+02 1.216019142471965298e+00
9.970000000000000000e+02 5.419843146857459715e+00
9.980000000000000000e+02 5.718942282721470427e+00
9.990000000000000000e+02 3.168794854832067909e+00
1.000000000000000000e+03 2.396255653040074929e+00
1.001000000000000000e+03 1.894866161825737638e+00
1.002000000000000000e+03 9.234107551868064867e-01
1.003000000000000000e+03 4.686663373443964886e+00
1.004000000000000000e+03 3.546736917012338619e+00
1.005000000000000000e+03 3.211669999999999803e-01
1.006000000000000000e+03 3.033265195020697913e+00
1.007000000000000000e+03 2.299069470954272276e+00
1.008000000000000000e+03 8.513085829875554067e-01
1.009000000000000000e+03 4.718522551867320169e-01
1.010000000000000000e+03 1.106527165975110361e+00
1.011000000000000000e+03 3.809146331950229225e+00
1.012000000000000000e+03 3.762625145228207124e+00
1.013000000000000000e+03 3.196985020746909267e+00
1.014000000000000000e+03 2.595855333333325188e+00
1.015000000000000000e+03 3.475712908713683991e+00
1.016000000000000000e+03 2.656396566390114344e+00
1.017000000000000000e+03 2.477001248962655389e+00
1.018000000000000000e+03 2.618801490683246413e+00
1.019000000000000000e+03 1.898321726141076971e+00
1.020000000000000000e+03 2.234599493775899504e+00
1.021000000000000000e+03 3.695480659751058106e+00
1.022000000000000000e+03 4.601801347826087074e+00
1.023000000000000000e+03 3.797508572614201938e+00
1.024000000000000000e+03 6.892977738588648151e-01
1.025000000000000000e+03 1.336486375518497471e+00
1.026000000000000000e+03 2.691571894409879206e+00
1.027000000000000000e+03 6.208849585063128673e-01
1.028000000000000000e+03 6.033024522821146540e-01
1.029000000000000000e+03 2.753488751037342919e+00
1.030000000000000000e+03 3.202704236514550828e+00
1.031000000000000000e+03 4.109465580912829985e+00
1.032000000000000000e+03 2.386348390041532319e+00
1.033000000000000000e+03 1.172446454356858458e+00
1.034000000000000000e+03 2.494769130434885351e+00
1.035000000000000000e+03 2.403853298755254997e+00
1.036000000000000000e+03 2.073134352697116878e+00
1.037000000000000000e+03 2.781153937759304640e+00
1.038000000000000000e+03 3.304317248962387765e+00
1.039000000000000000e+03 4.764219566390059946e+00
1.040000000000000000e+03 1.130023794605674148e+00
1.041000000000000000e+03 2.316345033194951331e+00
1.042000000000000000e+03 2.876363624481332426e+00
1.043000000000000000e+03 1.857681997929573114e+00
1.044000000000000000e+03 3.085335298755416567e+00
1.045000000000000000e+03 2.721339456431739023e+00
1.046000000000000000e+03 1.246256282157652606e+00
1.047000000000000000e+03 2.258803331950214766e+00
1.048000000000000000e+03 1.921842825726296500e+00
1.049000000000000000e+03 1.022498338174201216e+00
1.050000000000000000e+03 3.354262078838211369e+00
1.051000000000000000e+03 3.864403078838174466e+00
1.052000000000000000e+03 4.178535813277999722e+00
1.053000000000000000e+03 2.659029751037349509e+00
1.054000000000000000e+03 3.472321207469071247e+00
1.055000000000000000e+03 3.362129844720609828e+00
1.056000000000000000e+03 1.328148856846453452e+00
1.057000000000000000e+03 3.477129101659812260e+00
1.058000000000000000e+03 3.645866414937709354e+00
1.059000000000000000e+03 2.164459906832243430e+00
1.060000000000000000e+03 3.372688414937778933e+00
1.061000000000000000e+03 4.653760543568512986e+00
1.062000000000000000e+03 4.911035514522867906e+00
1.063000000000000000e+03 3.868642360248486067e+00
1.064000000000000000e+03 3.313119425311227495e+00
1.065000000000000000e+03 3.613138417012448311e+00
1.066000000000000000e+03 2.728530879668180198e+00
1.067000000000000000e+03 1.072310047717840442e+00
1.068000000000000000e+03 1.635241095435725711e+00
1.069000000000000000e+03 1.607695921161842012e+00
1.070000000000000000e+03 1.093962547717846068e+00
1.071000000000000000e+03 3.547016000000138725e+00
1.072000000000000000e+03 3.664417857142992396e+00
1.073000000000000000e+03 3.629748051867207170e+00
1.074000000000000000e+03 2.076601282157600536e+00
1.075000000000000000e+03 6.673881639006957744e-01
1.076000000000000000e+03 3.176716531120378662e+00
1.077000000000000000e+03 3.413294186721983703e+00
1.078000000000000000e+03 5.787927228215711040e+00
1.079000000000000000e+03 2.897073170124464525e+00
1.080000000000000000e+03 2.924128925311175298e+00
1.081000000000000000e+03 2.846126549792519000e+00
1.082000000000000000e+03 4.418084280083264481e+00
1.083000000000000000e+03 3.469136342323893007e+00
1.084000000000000000e+03 2.692085211180140547e+00
1.085000000000000000e+03 3.771096497925266355e+00
1.086000000000000000e+03 2.476066145227949988e+00
1.087000000000000000e+03 4.393603298755214048e+00
1.088000000000000000e+03 3.311166427385873856e+00
1.089000000000000000e+03 2.757932089211564630e+00
1.090000000000000000e+03 1.627841267634899003e+00
1.091000000000000000e+03 1.899300296680501043e+00
1.092000000000000000e+03 2.537924715767652994e+00
1.093000000000000000e+03 1.641883265560317273e+00
1.094000000000000000e+03 9.370786182572512502e-01
1.095000000000000000e+03 1.513133286307065228e+00
1.096000000000000000e+03 2.032401792531211893e+00
1.097000000000000000e+03 2.892955255186707930e+00
1.098000000000000000e+03 2.166826639004129973e+00
1.099000000000000000e+03 1.037005580912800262e+00
1.100000000000000000e+03 2.627588885891927628e+00
1.101000000000000000e+03 4.983544585062237964e+00
1.102000000000000000e+03 4.087557468879526645e+00
1.103000000000000000e+03 1.905994999999911066e+00
1.104000000000000000e+03 8.387126763485647230e-01
1.105000000000000000e+03 1.031256265010380702e+00
1.106000000000000000e+03 7.360474476408043198e-01
1.107000000000000000e+03 8.335244460582214021e-01
1.108000000000000000e+03 2.360574340248945191e+00
1.109000000000000000e+03 7.455884285712743864e-01
1.110000000000000000e+03 1.731805352696906830e-01
1.111000000000000000e+03 3.361799004149349512e-01
1.112000000000000000e+03 8.715070373444169238e-01
1.113000000000000000e+03 8.720353962658018432e-01
1.114000000000000000e+03 1.017815954356962038e+00
1.115000000000000000e+03 4.148456576763468462e-01
1.116000000000000000e+03 1.018364334024997930e+00
1.117000000000000000e+03 1.928239744813334156e+00
1.118000000000000000e+03 1.182667099585072323e+00
1.119000000000000000e+03 1.207169273858952341e+00
1.120000000000000000e+03 2.710062369294586659e+00
1.121000000000000000e+03 2.310405925311278530e+00
1.122000000000000000e+03 8.612910456431279727e-01
1.123000000000000000e+03 2.088654358921357534e+00
1.124000000000000000e+03 5.019641078843046778e-01
1.125000000000000000e+03 6.542819564315909275e-01
1.126000000000000000e+03 2.239939825726270151e+00
1.127000000000000000e+03 2.811623278008407834e+00
1.128000000000000000e+03 2.376124962655473460e+00
1.129000000000000000e+03 4.368297423236505495e+00
1.130000000000000000e+03 3.614312763485553859e+00
1.131000000000000000e+03 7.998047506223834091e+00
1.132000000000000000e+03 8.248338224066410262e+00
1.133000000000000000e+03 8.142430358921181721e+00
1.134000000000000000e+03 6.551933173913071506e+00
1.135000000000000000e+03 4.232351946058146908e+00
1.136000000000000000e+03 4.122598688796705879e+00
1.137000000000000000e+03 4.771104477178409908e+00
1.138000000000000000e+03 4.072148548654292100e+00
1.139000000000000000e+03 3.987434883817428943e+00
1.140000000000000000e+03 6.318638543568274812e+00
1.141000000000000000e+03 3.004989655601473686e+00
1.142000000000000000e+03 6.141459713692903222e+00
1.143000000000000000e+03 5.267984950207371675e+00
1.144000000000000000e+03 3.442745717842299769e+00
1.145000000000000000e+03 3.710423215767553629e+00
1.146000000000000000e+03 2.875753298755204579e+00
1.147000000000000000e+03 2.927169470954731345e+00
1.148000000000000000e+03 3.815579612033558110e+00
1.149000000000000000e+03 1.717168564315289636e+00
1.150000000000000000e+03 5.839024417012496748e+00
1.151000000000000000e+03 3.472745257261609098e+00
1.152000000000000000e+03 4.397878721991662410e+00
1.153000000000000000e+03 7.298509253111662431e-01
1.154000000000000000e+03 1.848917387163635961e+00
1.155000000000000000e+03 1.993273672199285640e+00
1.156000000000000000e+03 2.646658311514216155e-01
1.157000000000000000e+03 8.833013132779331533e-01
1.158000000000000000e+03 1.735362058091395987e+00
1.159000000000000000e+03 3.833166369294632947e+00
1.160000000000000000e+03 2.460106502074649093e+00
1.161000000000000000e+03 1.396816215767615610e+00
1.162000000000000000e+03 1.956711962655528048e+00
1.163000000000000000e+03 2.964093335403721774e+00
1.164000000000000000e+03 3.394498512448148375e+00
1.165000000000000000e+03 3.874398174273826712e+00
1.166000000000000000e+03 2.413928531120440812e+00
1.167000000000000000e+03 1.096282074688802677e+00
1.168000000000000000e+03 2.213703464730461423e+00
1.169000000000000000e+03 3.210102066390100539e+00
1.170000000000000000e+03 2.605498775933607458e+00
1.171000000000000000e+03 1.802124620331712723e+00
1.172000000000000000e+03 2.880621224066158836e-01
1.173000000000000000e+03 1.993368856846429837e+00
1.174000000000000000e+03 2.821316558091306881e+00
1.175000000000000000e+03 3.964887281573496569e+00
1.176000000000000000e+03 1.838040423236660059e+00
1.177000000000000000e+03 8.186809626556009745e-01
1.178000000000000000e+03 1.119853132780114224e+00
1.179000000000000000e+03 1.012342796680545609e+00
1.180000000000000000e+03 1.779978037344374986e+00
1.181000000000000000e+03 1.569654682572488635e+00
1.182000000000000000e+03 4.898777572615853892e-01
1.183000000000000000e+03 2.299529888198771133e+00
1.184000000000000000e+03 1.790777962655579536e+00
1.185000000000000000e+03 1.456270618257399452e+00
1.186000000000000000e+03 3.251631684647309228e+00
1.187000000000000000e+03 1.308281327800879357e+00
1.188000000000000000e+03 1.552958456431603462e+00
1.189000000000000000e+03 2.215853981327785771e+00
1.190000000000000000e+03 4.551010215767487210e+00
1.191000000000000000e+03 4.203857906638966746e+00
1.192000000000000000e+03 4.056497049689649081e+00
1.193000000000000000e+03 5.588702659750981461e+00
1.194000000000000000e+03 5.535386340248964032e+00
1.195000000000000000e+03 5.665488286307101440e+00
1.196000000000000000e+03 5.790310398340515086e+00
1.197000000000000000e+03 3.115406404564360354e+00
1.198000000000000000e+03 2.311303398340234239e+00
1.199000000000000000e+03 2.292461649377727895e+00
1.200000000000000000e+03 5.498652261410626352e+00
1.201000000000000000e+03 5.075294448132765979e+00
1.202000000000000000e+03 3.783411854771741911e+00
1.203000000000000000e+03 3.523744858921162848e+00
1.204000000000000000e+03 3.025360047619067849e+00
1.205000000000000000e+03 2.408936962655585212e+00
1.206000000000000000e+03 3.015145213693072090e+00
1.207000000000000000e+03 4.419788614107824642e+00
1.208000000000000000e+03 4.443846552795030824e+00
1.209000000000000000e+03 4.292866834024982481e+00
1.210000000000000000e+03 5.001324580912934081e+00
1.211000000000000000e+03 3.516497875518700855e+00
1.212000000000000000e+03 2.910166501035186926e+00
1.213000000000000000e+03 2.396339334024895962e+00
1.214000000000000000e+03 4.110986987551751959e+00
1.215000000000000000e+03 5.216309796680498323e+00
1.216000000000000000e+03 5.611316518672242459e+00
1.217000000000000000e+03 4.482721651452498790e+00
1.218000000000000000e+03 3.424211572614098031e+00
1.219000000000000000e+03 3.613255493775864746e+00
1.220000000000000000e+03 1.371214502074568742e+00
1.221000000000000000e+03 2.026631848547782333e+00
1.222000000000000000e+03 3.737751161825743629e-01
1.223000000000000000e+03 8.947156244814267190e-01
1.224000000000000000e+03 2.035003618257186897e+00
1.225000000000000000e+03 2.745319531120333778e+00
1.226000000000000000e+03 2.656539688796658805e+00
1.227000000000000000e+03 2.487573780082984243e+00
1.228000000000000000e+03 1.173011551867299662e+00
1.229000000000000000e+03 3.724614136929726982e+00
1.230000000000000000e+03 5.459004875518290945e+00
1.231000000000000000e+03 2.364509580913003450e+00
1.232000000000000000e+03 2.342166836099580873e+00
1.233000000000000000e+03 4.703050260869714450e+00
1.234000000000000000e+03 4.663745402489697156e+00
1.235000000000000000e+03 1.134902344398330820e+00
1.236000000000000000e+03 2.064248921161830896e+00
1.237000000000000000e+03 1.716915043478230984e+00
1.238000000000000000e+03 1.431127813277990324e+00
1.239000000000000000e+03 2.874375180497934945e+00
1.240000000000000000e+03 1.580732029045447629e+00
1.241000000000000000e+03 1.161163028985403800e+00
1.242000000000000000e+03 5.211772667220166966e-01
1.243000000000000000e+03 1.179837199170180151e+00
1.244000000000000000e+03 5.719707717843101058e-01
1.245000000000000000e+03 2.984459950207341450e+00
1.246000000000000000e+03 3.431455773858903768e+00
1.247000000000000000e+03 2.324969742738579814e+00
1.248000000000000000e+03 4.692369141078945205e+00
1.249000000000000000e+03 3.281340016597470211e+00
1.250000000000000000e+03 5.517300423236458862e+00
1.251000000000000000e+03 2.608417211618516252e+00
1.252000000000000000e+03 1.913409759336042182e+00
1.253000000000000000e+03 4.326687896265611677e+00
1.254000000000000000e+03 5.305158429460583136e+00
1.255000000000000000e+03 4.174058024896369901e+00
1.256000000000000000e+03 4.315875188796673534e+00
1.257000000000000000e+03 3.369833738589009364e+00
1.258000000000000000e+03 2.022479203319347274e+00
1.259000000000000000e+03 3.935809526970934780e+00
1.260000000000000000e+03 2.212231912863013683e+00
1.261000000000000000e+03 2.134554269709630692e+00
1.262000000000000000e+03 5.079691479253217068e+00
1.263000000000000000e+03 2.838046228215767464e+00
1.264000000000000000e+03 3.545317242738563746e+00
1.265000000000000000e+03 2.429381122406674809e+00
1.266000000000000000e+03 3.606898942028940347e+00
1.267000000000000000e+03 3.536481203319442379e+00
1.268000000000000000e+03 2.586825091286311551e+00
1.269000000000000000e+03 2.384313622406633471e+00
1.270000000000000000e+03 1.468117577639717730e+00
1.271000000000000000e+03 2.610568132779615969e-01
1.272000000000000000e+03 1.786083402489283767e+00
1.273000000000000000e+03 4.692399018672197997e+00
1.274000000000000000e+03 1.064877282157555616e+00
1.275000000000000000e+03 2.027362406639449388e-01
1.276000000000000000e+03 0.000000000000000000e+00
1.277000000000000000e+03 0.000000000000000000e+00
1.278000000000000000e+03 0.000000000000000000e+00
1.279000000000000000e+03 0.000000000000000000e+00
1.280000000000000000e+03 0.000000000000000000e+00
1.281000000000000000e+03 0.000000000000000000e+00
1.282000000000000000e+03 0.000000000000000000e+00
1.283000000000000000e+03 0.000000000000000000e+00
1.284000000000000000e+03 0.000000000000000000e+00
1.285000000000000000e+03 0.000000000000000000e+00
1.286000000000000000e+03 0.000000000000000000e+00
1.287000000000000000e+03 0.000000000000000000e+00
1.288000000000000000e+03 0.000000000000000000e+00
1.289000000000000000e+03 0.000000000000000000e+00
1.290000000000000000e+03 0.000000000000000000e+00
1.291000000000000000e+03 0.000000000000000000e+00
1.292000000000000000e+03 0.000000000000000000e+00
1.293000000000000000e+03 0.000000000000000000e+00
1.294000000000000000e+03 0.000000000000000000e+00
1.295000000000000000e+03 0.000000000000000000e+00
1.296000000000000000e+03 0.000000000000000000e+00
1.297000000000000000e+03 0.000000000000000000e+00
1.298000000000000000e+03 0.000000000000000000e+00
1.299000000000000000e+03 0.000000000000000000e+00
1.300000000000000000e+03 0.000000000000000000e+00
1.301000000000000000e+03 0.000000000000000000e+00
1.302000000000000000e+03 0.000000000000000000e+00
1.303000000000000000e+03 0.000000000000000000e+00
1.304000000000000000e+03 0.000000000000000000e+00
1.305000000000000000e+03 0.000000000000000000e+00
1.306000000000000000e+03 0.000000000000000000e+00
1.307000000000000000e+03 0.000000000000000000e+00
1.308000000000000000e+03 0.000000000000000000e+00
1.309000000000000000e+03 0.000000000000000000e+00
1.310000000000000000e+03 0.000000000000000000e+00
1.311000000000000000e+03 0.000000000000000000e+00
1.312000000000000000e+03 0.000000000000000000e+00
1.313000000000000000e+03 0.000000000000000000e+00
1.314000000000000000e+03 0.000000000000000000e+00
1.315000000000000000e+03 0.000000000000000000e+00
1.316000000000000000e+03 0.000000000000000000e+00
1.317000000000000000e+03 0.000000000000000000e+00
1.318000000000000000e+03 0.000000000000000000e+00
1.319000000000000000e+03 0.000000000000000000e+00
1.320000000000000000e+03 0.000000000000000000e+00
1.321000000000000000e+03 0.000000000000000000e+00
1.322000000000000000e+03 0.000000000000000000e+00
1.323000000000000000e+03 0.000000000000000000e+00
1.324000000000000000e+03 0.000000000000000000e+00
1.325000000000000000e+03 0.000000000000000000e+00
1.326000000000000000e+03 0.000000000000000000e+00
1.327000000000000000e+03 0.000000000000000000e+00
1.328000000000000000e+03 0.000000000000000000e+00
1.329000000000000000e+03 0.000000000000000000e+00
1.330000000000000000e+03 0.000000000000000000e+00
1.331000000000000000e+03 0.000000000000000000e+00
1.332000000000000000e+03 0.000000000000000000e+00
1.333000000000000000e+03 0.000000000000000000e+00
1.334000000000000000e+03 0.000000000000000000e+00
1.335000000000000000e+03 0.000000000000000000e+00
1.336000000000000000e+03 0.000000000000000000e+00
1.337000000000000000e+03 0.000000000000000000e+00
1.338000000000000000e+03 0.000000000000000000e+00
1.339000000000000000e+03 0.000000000000000000e+00
1.340000000000000000e+03 0.000000000000000000e+00
1.341000000000000000e+03 0.000000000000000000e+00
1.342000000000000000e+03 0.000000000000000000e+00
1.343000000000000000e+03 0.000000000000000000e+00
1.344000000000000000e+03 0.000000000000000000e+00
1.345000000000000000e+03 0.000000000000000000e+00
1.346000000000000000e+03 0.000000000000000000e+00
1.347000000000000000e+03 0.000000000000000000e+00
1.348000000000000000e+03 0.000000000000000000e+00
1.349000000000000000e+03 0.000000000000000000e+00
1.350000000000000000e+03 0.000000000000000000e+00
1.351000000000000000e+03 0.000000000000000000e+00
1.352000000000000000e+03 0.000000000000000000e+00
1.353000000000000000e+03 0.000000000000000000e+00
1.354000000000000000e+03 0.000000000000000000e+00
1.355000000000000000e+03 0.000000000000000000e+00
1.356000000000000000e+03 0.000000000000000000e+00
1.357000000000000000e+03 0.000000000000000000e+00
1.358000000000000000e+03 0.000000000000000000e+00
1.359000000000000000e+03 0.000000000000000000e+00
1.360000000000000000e+03 0.000000000000000000e+00
1.361000000000000000e+03 0.000000000000000000e+00
1.362000000000000000e+03 0.000000000000000000e+00
1.363000000000000000e+03 0.000000000000000000e+00
1.364000000000000000e+03 0.000000000000000000e+00
1.365000000000000000e+03 0.000000000000000000e+00
1.366000000000000000e+03 0.000000000000000000e+00
1.367000000000000000e+03 0.000000000000000000e+00
1.368000000000000000e+03 0.000000000000000000e+00
1.369000000000000000e+03 0.000000000000000000e+00
1.370000000000000000e+03 0.000000000000000000e+00
1.371000000000000000e+03 0.000000000000000000e+00
1.372000000000000000e+03 0.000000000000000000e+00
1.373000000000000000e+03 0.000000000000000000e+00
1.374000000000000000e+03 0.000000000000000000e+00
1.375000000000000000e+03 0.000000000000000000e+00
1.376000000000000000e+03 0.000000000000000000e+00
1.377000000000000000e+03 0.000000000000000000e+00
1.378000000000000000e+03 0.000000000000000000e+00
1.379000000000000000e+03 0.000000000000000000e+00
1.380000000000000000e+03 0.000000000000000000e+00
1.381000000000000000e+03 0.000000000000000000e+00
1.382000000000000000e+03 0.000000000000000000e+00
1.383000000000000000e+03 0.000000000000000000e+00
1.384000000000000000e+03 0.000000000000000000e+00
1.385000000000000000e+03 0.000000000000000000e+00
1.386000000000000000e+03 0.000000000000000000e+00
1.387000000000000000e+03 0.000000000000000000e+00
1.388000000000000000e+03 0.000000000000000000e+00
1.389000000000000000e+03 0.000000000000000000e+00
1.390000000000000000e+03 0.000000000000000000e+00
1.391000000000000000e+03 0.000000000000000000e+00
1.392000000000000000e+03 0.000000000000000000e+00
1.393000000000000000e+03 0.000000000000000000e+00
1.394000000000000000e+03 0.000000000000000000e+00
1.395000000000000000e+03 0.000000000000000000e+00
1.396000000000000000e+03 0.000000000000000000e+00
1.397000000000000000e+03 0.000000000000000000e+00
1.398000000000000000e+03 0.000000000000000000e+00
1.399000000000000000e+03 0.000000000000000000e+00
1.400000000000000000e+03 0.000000000000000000e+00
1.401000000000000000e+03 0.000000000000000000e+00
1.402000000000000000e+03 0.000000000000000000e+00
1.403000000000000000e+03 0.000000000000000000e+00
1.404000000000000000e+03 0.000000000000000000e+00
1.405000000000000000e+03 0.000000000000000000e+00
1.406000000000000000e+03 0.000000000000000000e+00
1.407000000000000000e+03 0.000000000000000000e+00
1.408000000000000000e+03 0.000000000000000000e+00
1.409000000000000000e+03 0.000000000000000000e+00
1.410000000000000000e+03 0.000000000000000000e+00
1.411000000000000000e+03 0.000000000000000000e+00
1.412000000000000000e+03 0.000000000000000000e+00
1.413000000000000000e+03 0.000000000000000000e+00
1.414000000000000000e+03 0.000000000000000000e+00
1.415000000000000000e+03 0.000000000000000000e+00
1.416000000000000000e+03 0.000000000000000000e+00
1.417000000000000000e+03 0.000000000000000000e+00
1.418000000000000000e+03 0.000000000000000000e+00
1.419000000000000000e+03 0.000000000000000000e+00
1.420000000000000000e+03 0.000000000000000000e+00
1.421000000000000000e+03 0.000000000000000000e+00
1.422000000000000000e+03 0.000000000000000000e+00
1.423000000000000000e+03 0.000000000000000000e+00
1.424000000000000000e+03 0.000000000000000000e+00
1.425000000000000000e+03 0.000000000000000000e+00
1.426000000000000000e+03 0.000000000000000000e+00
1.427000000000000000e+03 0.000000000000000000e+00
1.428000000000000000e+03 0.000000000000000000e+00
1.429000000000000000e+03 0.000000000000000000e+00
1.430000000000000000e+03 0.000000000000000000e+00
1.431000000000000000e+03 0.000000000000000000e+00
1.432000000000000000e+03 0.000000000000000000e+00
1.433000000000000000e+03 0.000000000000000000e+00
1.434000000000000000e+03 0.000000000000000000e+00
1.435000000000000000e+03 0.000000000000000000e+00
1.436000000000000000e+03 0.000000000000000000e+00
1.437000000000000000e+03 0.000000000000000000e+00
1.438000000000000000e+03 0.000000000000000000e+00
1.439000000000000000e+03 0.000000000000000000e+00
1.440000000000000000e+03 0.000000000000000000e+00
1.441000000000000000e+03 0.000000000000000000e+00
1.442000000000000000e+03 0.000000000000000000e+00
1.443000000000000000e+03 0.000000000000000000e+00
1.444000000000000000e+03 0.000000000000000000e+00
1.445000000000000000e+03 0.000000000000000000e+00
1.446000000000000000e+03 0.000000000000000000e+00
1.447000000000000000e+03 0.000000000000000000e+00
1.448000000000000000e+03 0.000000000000000000e+00
1.449000000000000000e+03 0.000000000000000000e+00
1.450000000000000000e+03 0.000000000000000000e+00
1.451000000000000000e+03 0.000000000000000000e+00
1.452000000000000000e+03 0.000000000000000000e+00
1.453000000000000000e+03 0.000000000000000000e+00
1.454000000000000000e+03 0.000000000000000000e+00
1.455000000000000000e+03 0.000000000000000000e+00
1.456000000000000000e+03 0.000000000000000000e+00
1.457000000000000000e+03 0.000000000000000000e+00
1.458000000000000000e+03 0.000000000000000000e+00
1.459000000000000000e+03 0.000000000000000000e+00
1.460000000000000000e+03 0.000000000000000000e+00
1.461000000000000000e+03 0.000000000000000000e+00
1.462000000000000000e+03 0.000000000000000000e+00
1.463000000000000000e+03 0.000000000000000000e+00
1.464000000000000000e+03 0.000000000000000000e+00
1.465000000000000000e+03 0.000000000000000000e+00
1.466000000000000000e+03 0.000000000000000000e+00
1.467000000000000000e+03 0.000000000000000000e+00
1.468000000000000000e+03 0.000000000000000000e+00
1.469000000000000000e+03 0.000000000000000000e+00
1.470000000000000000e+03 0.000000000000000000e+00
1.471000000000000000e+03 0.000000000000000000e+00
1.472000000000000000e+03 0.000000000000000000e+00
1.473000000000000000e+03 0.000000000000000000e+00
1.474000000000000000e+03 0.000000000000000000e+00
1.475000000000000000e+03 0.000000000000000000e+00
1.476000000000000000e+03 0.000000000000000000e+00
1.477000000000000000e+03 0.000000000000000000e+00
1.478000000000000000e+03 0.000000000000000000e+00
1.479000000000000000e+03 0.000000000000000000e+00
1.480000000000000000e+03 0.000000000000000000e+00
1.481000000000000000e+03 0.000000000000000000e+00
1.482000000000000000e+03 0.000000000000000000e+00
1.483000000000000000e+03 0.000000000000000000e+00
1.484000000000000000e+03 0.000000000000000000e+00
1.485000000000000000e+03 0.000000000000000000e+00
1.486000000000000000e+03 0.000000000000000000e+00
1.487000000000000000e+03 0.000000000000000000e+00
1.488000000000000000e+03 0.000000000000000000e+00
1.489000000000000000e+03 0.000000000000000000e+00
1.490000000000000000e+03 0.000000000000000000e+00
1.491000000000000000e+03 0.000000000000000000e+00
1.492000000000000000e+03 0.000000000000000000e+00
1.493000000000000000e+03 0.000000000000000000e+00
1.494000000000000000e+03 0.000000000000000000e+00
1.495000000000000000e+03 0.000000000000000000e+00
1.496000000000000000e+03 0.000000000000000000e+00
1.497000000000000000e+03 0.000000000000000000e+00
1.498000000000000000e+03 0.000000000000000000e+00
1.499000000000000000e+03 0.000000000000000000e+00
1.500000000000000000e+03 0.000000000000000000e+00
