1.010000000000000000e+02 0.000000000000000000e+00
1.020000000000000000e+02 0.000000000000000000e+00
1.030000000000000000e+02 0.000000000000000000e+00
1.040000000000000000e+02 0.000000000000000000e+00
1.050000000000000000e+02 0.000000000000000000e+00
1.060000000000000000e+02 0.000000000000000000e+00
1.070000000000000000e+02 0.000000000000000000e+00
1.080000000000000000e+02 0.000000000000000000e+00
1.090000000000000000e+02 0.000000000000000000e+00
1.100000000000000000e+02 0.000000000000000000e+00
1.110000000000000000e+02 0.000000000000000000e+00
1.120000000000000000e+02 0.000000000000000000e+00
1.130000000000000000e+02 0.000000000000000000e+00
1.140000000000000000e+02 0.000000000000000000e+00
1.150000000000000000e+02 0.000000000000000000e+00
1.160000000000000000e+02 0.000000000000000000e+00
1.170000000000000000e+02 0.000000000000000000e+00
1.180000000000000000e+02 0.000000000000000000e+00
1.190000000000000000e+02 0.000000000000000000e+00
1.200000000000000000e+02 0.000000000000000000e+00
1.210000000000000000e+02 0.000000000000000000e+00
1.220000000000000000e+02 0.000000000000000000e+00
1.230000000000000000e+02 0.000000000000000000e+00
1.240000000000000000e+02 0.000000000000000000e+00
1.250000000000000000e+02 0.000000000000000000e+00
1.260000000000000000e+02 0.000000000000000000e+00
1.270000000000000000e+02 0.000000000000000000e+00
1.280000000000000000e+02 0.000000000000000000e+00
1.290000000000000000e+02 0.000000000000000000e+00
1.300000000000000000e+02 0.000000000000000000e+00
1.310000000000000000e+02 0.000000000000000000e+00
1.320000000000000000e+02 0.000000000000000000e+00
1.330000000000000000e+02 0.000000000000000000e+00
1.340000000000000000e+02 0.000000000000000000e+00
1.350000000000000000e+02 0.000000000000000000e+00
1.360000000000000000e+02 0.000000000000000000e+00
1.370000000000000000e+02 0.000000000000000000e+00
1.380000000000000000e+02 0.000000000000000000e+00
1.390000000000000000e+02 0.000000000000000000e+00
1.400000000000000000e+02 0.000000000000000000e+00
1.410000000000000000e+02 0.000000000000000000e+00
1.420000000000000000e+02 0.000000000000000000e+00
1.430000000000000000e+02 0.000000000000000000e+00
1.440000000000000000e+02 0.000000000000000000e+00
1.450000000000000000e+02 0.000000000000000000e+00
1.460000000000000000e+02 0.000000000000000000e+00
1.470000000000000000e+02 0.000000000000000000e+00
1.480000000000000000e+02 0.000000000000000000e+00
1.490000000000000000e+02 0.000000000000000000e+00
1.500000000000000000e+02 0.000000000000000000e+00
1.510000000000000000e+02 0.000000000000000000e+00
1.520000000000000000e+02 0.000000000000000000e+00
1.530000000000000000e+02 0.000000000000000000e+00
1.540000000000000000e+02 1.793549012857784952e-01
1.550000000000000000e+02 2.663872374777009355e+01
1.560000000000000000e+02 6.026411913088575290e+01
1.570000000000000000e+02 3.500800383658220483e+01
1.580000000000000000e+02 1.992265371499680882e+01
1.590000000000000000e+02 1.148327662932999615e+01
1.600000000000000000e+02 1.178752942854175068e+01
1.610000000000000000e+02 2.191736464841309129e+01
1.620000000000000000e+02 2.086451701783481738e+01
1.630000000000000000e+02 3.694171408836345982e+00
1.640000000000000000e+02 3.484826241651055145e+00
1.650000000000000000e+02 2.628256249688918800e+01
1.660000000000000000e+02 5.152422517942343205e+01
1.670000000000000000e+02 2.706930517112613899e+01
1.680000000000000000e+02 3.158512041061791109e+01
1.690000000000000000e+02 6.462826062435173924e+01
1.700000000000000000e+02 6.428705662518152053e+01
1.710000000000000000e+02 1.083054631688099505e+02
1.720000000000000000e+02 1.199037639701306830e+02
1.730000000000000000e+02 8.906398387056650279e+01
1.740000000000000000e+02 5.747299251555345734e+01
1.750000000000000000e+02 8.651717118855033561e+01
1.760000000000000000e+02 1.068407385812072903e+02
1.770000000000000000e+02 1.774768114499057958e+02
1.780000000000000000e+02 2.913851838207840501e+02
1.790000000000000000e+02 2.781894897946488641e+02
1.800000000000000000e+02 4.008631667911226373e+02
1.810000000000000000e+02 4.779183264467953336e+02
1.820000000000000000e+02 4.580803579962661729e+02
1.830000000000000000e+02 5.143944059738652186e+02
1.840000000000000000e+02 6.066274934868290529e+02
1.850000000000000000e+02 6.894373240821406625e+02
1.860000000000000000e+02 8.032200926571238142e+02
1.870000000000000000e+02 1.008065078158055371e+03
1.880000000000000000e+02 1.279408885500936094e+03
1.890000000000000000e+02 1.607455685542418678e+03
1.900000000000000000e+02 1.958272666459239190e+03
1.910000000000000000e+02 2.353865160721689790e+03
1.920000000000000000e+02 2.971564927400962915e+03
1.930000000000000000e+02 4.262680004563373586e+03
1.940000000000000000e+02 5.307403681601324934e+03
1.950000000000000000e+02 4.995546773490993473e+03
1.960000000000000000e+02 2.831046964322729764e+03
1.970000000000000000e+02 1.365055298278361761e+03
1.980000000000000000e+02 6.709292253059539917e+02
1.990000000000000000e+02 3.890603895457389854e+02
2.000000000000000000e+02 2.771241739265705633e+02
2.010000000000000000e+02 2.374507460485374679e+02
2.020000000000000000e+02 1.810463313148070483e+02
2.030000000000000000e+02 1.438828162207009598e+02
2.040000000000000000e+02 1.491031683883014409e+02
2.050000000000000000e+02 1.123564005806718313e+02
2.060000000000000000e+02 1.345386148724331576e+02
2.070000000000000000e+02 1.446725543040864466e+02
2.080000000000000000e+02 1.157947384487763998e+02
2.090000000000000000e+02 9.621187960174218290e+01
2.100000000000000000e+02 7.306549967226708020e+01
2.110000000000000000e+02 8.362149323931966194e+01
2.120000000000000000e+02 8.990641116780768982e+01
2.130000000000000000e+02 6.034933055382687428e+01
2.140000000000000000e+02 8.405900318540039962e+01
2.150000000000000000e+02 9.528900192283758486e+01
2.160000000000000000e+02 8.094478362165547480e+01
2.170000000000000000e+02 4.910241518564566121e+01
2.180000000000000000e+02 2.300485737398888020e+01
2.190000000000000000e+02 6.577697292885301295e+01
2.200000000000000000e+02 6.685475818709852547e+01
2.210000000000000000e+02 4.371890435179384582e+01
2.220000000000000000e+02 8.363971575606750264e+01
2.230000000000000000e+02 8.693776411947729343e+01
2.240000000000000000e+02 1.128606372287905373e+02
2.250000000000000000e+02 1.341995209500103670e+02
2.260000000000000000e+02 1.283391870566272530e+02
2.270000000000000000e+02 1.453894531425016510e+02
2.280000000000000000e+02 1.563780913295996697e+02
2.290000000000000000e+02 1.828224034640112734e+02
2.300000000000000000e+02 1.960236969508391951e+02
2.310000000000000000e+02 1.341693087741130341e+02
2.320000000000000000e+02 1.034249523957685284e+02
2.330000000000000000e+02 6.551986869321746099e+01
2.340000000000000000e+02 2.249609692802337335e+01
2.350000000000000000e+02 1.444224831985080781e+00
2.360000000000000000e+02 1.795331778469200401e+01
2.370000000000000000e+02 1.192207317983810455e+01
2.380000000000000000e+02 1.321586557830360853e+01
2.390000000000000000e+02 6.949019020950069958e+00
2.400000000000000000e+02 1.450767168450533262e+01
2.410000000000000000e+02 5.411591125077835684e+00
2.420000000000000000e+02 3.949783723293888826e+00
2.430000000000000000e+02 1.804734217174912558e+01
2.440000000000000000e+02 4.743268484131910867e+01
2.450000000000000000e+02 1.613207853131481428e+01
2.460000000000000000e+02 2.278128281891705598e+01
2.470000000000000000e+02 2.244185644575829741e+01
2.480000000000000000e+02 3.704944603276694615e+00
2.490000000000000000e+02 4.985370476249745941e+00
2.500000000000000000e+02 4.024853386434331526e+01
2.510000000000000000e+02 3.806177999170446213e+01
2.520000000000000000e+02 1.977626889234598195e+01
2.530000000000000000e+02 2.545390978220285660e+01
2.540000000000000000e+02 2.092523222107123715e+00
2.550000000000000000e+02 4.949994125700091452e+00
2.560000000000000000e+02 8.031782754200689212e+00
2.570000000000000000e+02 3.272669457373934421e+01
2.580000000000000000e+02 4.897817750259284963e+01
2.590000000000000000e+02 3.887449875544461975e+01
2.600000000000000000e+02 2.741690080273811958e+01
2.610000000000000000e+02 2.681444904376667182e+01
2.620000000000000000e+02 3.399048280854594140e+01
2.630000000000000000e+02 3.130352062020327963e+01
2.640000000000000000e+02 4.170620622277512268e+01
2.650000000000000000e+02 5.451029419622468453e+01
2.660000000000000000e+02 5.924890078614395605e+01
2.670000000000000000e+02 5.705861857913298962e+01
2.680000000000000000e+02 3.960494993154968313e+01
2.690000000000000000e+02 2.592952695083997128e+01
2.700000000000000000e+02 2.807693981953960716e+01
2.710000000000000000e+02 4.635534307341354321e+01
2.720000000000000000e+02 5.052205700062192761e+01
2.730000000000000000e+02 1.246791095955153494e+01
2.740000000000000000e+02 2.634316117378644151e+01
2.750000000000000000e+02 9.634421388093842609e+01
2.760000000000000000e+02 1.072353578718108622e+02
2.770000000000000000e+02 1.070436396515968482e+02
2.780000000000000000e+02 1.279780550715611440e+02
2.790000000000000000e+02 1.386006958722259981e+02
2.800000000000000000e+02 1.382796895064288378e+02
2.810000000000000000e+02 2.256382626218615712e+02
2.820000000000000000e+02 2.327480528204063148e+02
2.830000000000000000e+02 2.528229213441196066e+02
2.840000000000000000e+02 3.255220801493463227e+02
2.850000000000000000e+02 4.066679944617311548e+02
2.860000000000000000e+02 4.757623493880944920e+02
2.870000000000000000e+02 5.479004380833856658e+02
2.880000000000000000e+02 6.578176438705698956e+02
2.890000000000000000e+02 8.137169068657988191e+02
2.900000000000000000e+02 9.592333405517534857e+02
2.910000000000000000e+02 8.681923364239830789e+02
2.920000000000000000e+02 5.567907149346567621e+02
2.930000000000000000e+02 3.174113574984424417e+02
2.940000000000000000e+02 3.494912640531008492e+02
2.950000000000000000e+02 2.522397097697597701e+02
2.960000000000000000e+02 2.629342324828859319e+02
2.970000000000000000e+02 2.191338553204740265e+02
2.980000000000000000e+02 8.663583178386248562e+01
2.990000000000000000e+02 8.792635965781828133e+01
3.000000000000000000e+02 8.502089890686578144e+01
3.010000000000000000e+02 8.505482742377097338e+01
3.020000000000000000e+02 1.035367871920365843e+02
3.030000000000000000e+02 1.323208633685959512e+02
3.040000000000000000e+02 1.384512128189171847e+02
3.050000000000000000e+02 1.017837607984230033e+02
3.060000000000000000e+02 4.969654197261873918e+01
3.070000000000000000e+02 1.924236966604423316e+01
3.080000000000000000e+02 2.336503915387798713e+01
3.090000000000000000e+02 3.942830160340777823e+00
3.100000000000000000e+02 2.442250429993832839e+01
3.110000000000000000e+02 1.842278239141288054e+01
3.120000000000000000e+02 2.739829359054164826e+01
3.130000000000000000e+02 1.306266805434534284e+01
3.140000000000000000e+02 3.935522821821183470e+01
3.150000000000000000e+02 4.499381865588074447e+01
3.160000000000000000e+02 1.606907928023278131e+01
3.170000000000000000e+02 4.892856112839673699e+01
3.180000000000000000e+02 7.153021704418168270e+01
3.190000000000000000e+02 7.116930868077167815e+01
3.200000000000000000e+02 4.412568288736715516e+01
3.210000000000000000e+02 3.532848082140651513e+01
3.220000000000000000e+02 9.709720842148938402e+01
3.230000000000000000e+02 1.312824541588887826e+02
3.240000000000000000e+02 1.661378369010584208e+02
3.250000000000000000e+02 2.009883558274576387e+02
3.260000000000000000e+02 2.282364486413606812e+02
3.270000000000000000e+02 2.471622337067013007e+02
3.280000000000000000e+02 3.617390694110335971e+02
3.290000000000000000e+02 4.422284367766015976e+02
3.300000000000000000e+02 4.979227884878637269e+02
3.310000000000000000e+02 5.763883493985886162e+02
3.320000000000000000e+02 6.549650755859773881e+02
3.330000000000000000e+02 6.725441078406971656e+02
3.340000000000000000e+02 6.415322109498134751e+02
3.350000000000000000e+02 5.871528897739058266e+02
3.360000000000000000e+02 5.268974257830329861e+02
3.370000000000000000e+02 4.535747085044584992e+02
3.380000000000000000e+02 3.493054347853135368e+02
3.390000000000000000e+02 2.774157958722256581e+02
3.400000000000000000e+02 2.604879488280437272e+02
3.410000000000000000e+02 2.547905348060567974e+02
3.420000000000000000e+02 2.582330514623524778e+02
3.430000000000000000e+02 3.197459120721815680e+02
3.440000000000000000e+02 4.019775735532063550e+02
3.450000000000000000e+02 4.814794275668969021e+02
3.460000000000000000e+02 6.109355926778655430e+02
3.470000000000000000e+02 6.777467034847531977e+02
3.480000000000000000e+02 7.894992058079265007e+02
3.490000000000000000e+02 9.358850267994179148e+02
3.500000000000000000e+02 1.056469052893588923e+03
3.510000000000000000e+02 1.165906788054746812e+03
3.520000000000000000e+02 1.303165488487865559e+03
3.530000000000000000e+02 1.541651488179178614e+03
3.540000000000000000e+02 1.834025296618962102e+03
3.550000000000000000e+02 2.105326763327113440e+03
3.560000000000000000e+02 2.494428979883871307e+03
3.570000000000000000e+02 2.836945808338525694e+03
3.580000000000000000e+02 3.154994061398055692e+03
3.590000000000000000e+02 3.528142378681041009e+03
3.600000000000000000e+02 3.964020618129008199e+03
3.610000000000000000e+02 4.300687009956447582e+03
3.620000000000000000e+02 4.441860790958107827e+03
3.630000000000000000e+02 4.238958095001043148e+03
3.640000000000000000e+02 3.712885964530194087e+03
3.650000000000000000e+02 3.087944431030908618e+03
3.660000000000000000e+02 2.345890492843814172e+03
3.670000000000000000e+02 1.772005483302225684e+03
3.680000000000000000e+02 1.354733382493256613e+03
3.690000000000000000e+02 1.015920774922215173e+03
3.700000000000000000e+02 8.074830821406355881e+02
3.710000000000000000e+02 6.729695981331658459e+02
3.720000000000000000e+02 5.772522075295573813e+02
3.730000000000000000e+02 5.057733345986307540e+02
3.740000000000000000e+02 4.509913666874080604e+02
3.750000000000000000e+02 3.981951125700054490e+02
3.760000000000000000e+02 3.951151889234600389e+02
3.770000000000000000e+02 4.367501655050805880e+02
3.780000000000000000e+02 4.664276437875950023e+02
3.790000000000000000e+02 4.397995704894237292e+02
3.800000000000000000e+02 4.665692785314250273e+02
3.810000000000000000e+02 4.359076052686178286e+02
3.820000000000000000e+02 3.709856616341778590e+02
3.830000000000000000e+02 3.100711314250160058e+02
3.840000000000000000e+02 2.632968570006227651e+02
3.850000000000000000e+02 2.309375304230610766e+02
3.860000000000000000e+02 1.948902834474175165e+02
3.870000000000000000e+02 1.577987919103921968e+02
3.880000000000000000e+02 1.311818724595601395e+02
3.890000000000000000e+02 1.194617802738020060e+02
3.900000000000000000e+02 1.061019352001658831e+02
3.910000000000000000e+02 8.854888073636116985e+01
3.920000000000000000e+02 5.259642599253177764e+01
3.930000000000000000e+02 1.897220978220303067e+01
3.940000000000000000e+02 3.689676698195345494e+01
3.950000000000000000e+02 5.364301592615656489e+01
3.960000000000000000e+02 3.840744809583013364e+01
3.970000000000000000e+02 2.887774845675134827e+01
3.980000000000000000e+02 3.409263544492892350e+01
3.990000000000000000e+02 3.609033645509643229e+00
4.000000000000000000e+02 3.809908226508994744e+01
4.010000000000000000e+02 1.515829206264342233e+01
4.020000000000000000e+02 1.335775153080348687e+01
4.030000000000000000e+02 4.385709357187312207e+01
4.040000000000000000e+02 1.958043449118452983e+01
4.050000000000000000e+02 1.533916579012851145e+01
4.060000000000000000e+02 5.609665565235657070e+00
4.070000000000000000e+02 1.639682158431848435e+01
4.080000000000000000e+02 8.418808585648998033e-01
4.090000000000000000e+02 6.910936698402903033e+00
4.100000000000000000e+02 4.053614226094076400e+00
4.110000000000000000e+02 2.373380648693447448e+00
4.120000000000000000e+02 1.343790597013085986e+01
4.130000000000000000e+02 3.799402120721835274e+01
4.140000000000000000e+02 7.984178664247435719e+00
4.150000000000000000e+02 1.149243173760611114e+01
4.160000000000000000e+02 1.279193251524535668e+01
4.170000000000000000e+02 5.452233861053483110e+01
4.180000000000000000e+02 7.716408729309328862e+01
4.190000000000000000e+02 3.999508086081673497e+01
4.200000000000000000e+02 1.030571605724955475e+02
4.210000000000000000e+02 1.741917331673925275e+02
4.220000000000000000e+02 2.080638047915370805e+02
4.230000000000000000e+02 2.232670900228174844e+02
4.240000000000000000e+02 2.936009910392038478e+02
4.250000000000000000e+02 3.345361780750888556e+02
4.260000000000000000e+02 3.425413479775977521e+02
4.270000000000000000e+02 3.905815213026357924e+02
4.280000000000000000e+02 5.149751526446766547e+02
4.290000000000000000e+02 6.237606899813339396e+02
4.300000000000000000e+02 7.411078812072212258e+02
4.310000000000000000e+02 9.068748054760399100e+02
4.320000000000000000e+02 1.045487728894418979e+03
4.330000000000000000e+02 1.067343157610951266e+03
4.340000000000000000e+02 9.657557672682025895e+02
4.350000000000000000e+02 7.483635537025540998e+02
4.360000000000000000e+02 4.934561185192883386e+02
4.370000000000000000e+02 2.887003880730134142e+02
4.380000000000000000e+02 1.668616722879073109e+02
4.390000000000000000e+02 8.039136751970093542e+01
4.400000000000000000e+02 6.772177059738665150e+01
4.410000000000000000e+02 1.232778488819751885e+02
4.420000000000000000e+02 2.050644018457091704e+02
4.430000000000000000e+02 2.227619940676199803e+02
4.440000000000000000e+02 4.426616901057606412e+01
4.450000000000000000e+02 1.719509587429906894e+00
4.460000000000000000e+02 4.923112691142866204e+00
4.470000000000000000e+02 1.014472908545975116e+01
4.480000000000000000e+02 1.021337383717105318e+01
4.490000000000000000e+02 2.521944690105698683e+01
4.500000000000000000e+02 8.534235685957143858e+01
4.510000000000000000e+02 1.122832099149553926e+02
4.520000000000000000e+02 9.878850551752782394e+01
4.530000000000000000e+02 9.165301044803938169e+01
4.540000000000000000e+02 1.458274468574985576e+02
4.550000000000000000e+02 9.318309922215318863e+01
4.560000000000000000e+02 1.252577219249112659e+02
4.570000000000000000e+02 1.934105429371506375e+02
4.580000000000000000e+02 1.977218051649031167e+02
4.590000000000000000e+02 1.496581193902946438e+02
4.600000000000000000e+02 2.144586470856680478e+02
4.610000000000000000e+02 2.306774881352414752e+02
4.620000000000000000e+02 2.732101261717130569e+02
4.630000000000000000e+02 3.626874057249523275e+02
4.640000000000000000e+02 4.017603673096882062e+02
4.650000000000000000e+02 4.809545780796352119e+02
4.660000000000000000e+02 5.447676138767881184e+02
4.670000000000000000e+02 6.214860140012419834e+02
4.680000000000000000e+02 6.896867920364990141e+02
4.690000000000000000e+02 6.726369264053105326e+02
4.700000000000000000e+02 5.566331470856688384e+02
4.710000000000000000e+02 4.095592537951051781e+02
4.720000000000000000e+02 2.649186471686372784e+02
4.730000000000000000e+02 1.697634031943580908e+02
4.740000000000000000e+02 1.498850129641145941e+02
4.750000000000000000e+02 8.066356409873405653e+01
4.760000000000000000e+02 1.261835563161171869e+01
4.770000000000000000e+02 1.995374426758132103e+01
4.780000000000000000e+02 3.901753929889940053e+01
4.790000000000000000e+02 2.562400867247468739e+01
4.800000000000000000e+02 1.381321310972740335e+01
4.810000000000000000e+02 3.070740636589928840e+01
4.820000000000000000e+02 1.825095194357972872e+01
4.830000000000000000e+02 6.886315318813570840e+00
4.840000000000000000e+02 1.647817072391588056e+01
4.850000000000000000e+02 4.375146030692634724e+01
4.860000000000000000e+02 4.528335775357820125e+01
4.870000000000000000e+02 2.391993292263053306e+01
4.880000000000000000e+02 3.736351603069102190e+00
4.890000000000000000e+02 9.977690009749018429e+00
4.900000000000000000e+02 6.047074983198488241e+01
4.910000000000000000e+02 6.652761705101617906e+01
4.920000000000000000e+02 6.332701759800871599e+01
4.930000000000000000e+02 6.481563088570837294e+01
4.940000000000000000e+02 7.805178325658633298e+01
4.950000000000000000e+02 1.080389016179220363e+02
4.960000000000000000e+02 1.217422005391952098e+02
4.970000000000000000e+02 1.377281658162202405e+02
4.980000000000000000e+02 1.492801054967850689e+02
4.990000000000000000e+02 1.540352426052685644e+02
5.000000000000000000e+02 1.742396425637820130e+02
5.010000000000000000e+02 2.629336414229398429e+02
5.020000000000000000e+02 3.040595683468159223e+02
5.030000000000000000e+02 3.534329157228785903e+02
5.040000000000000000e+02 3.918603831362788696e+02
5.050000000000000000e+02 3.994749583696331001e+02
5.060000000000000000e+02 4.429466963078199342e+02
5.070000000000000000e+02 4.386928255341216527e+02
5.080000000000000000e+02 4.151660948350960894e+02
5.090000000000000000e+02 3.839960148724327382e+02
5.100000000000000000e+02 3.389715556730966455e+02
5.110000000000000000e+02 2.941856693632017254e+02
5.120000000000000000e+02 2.781906156813938651e+02
5.130000000000000000e+02 2.790546573206140692e+02
5.140000000000000000e+02 2.610001944617303593e+02
5.150000000000000000e+02 2.426922772868699099e+02
5.160000000000000000e+02 2.484906250103690013e+02
5.170000000000000000e+02 2.562420771624143754e+02
5.180000000000000000e+02 2.098909308027377563e+02
5.190000000000000000e+02 2.102626363334724147e+02
5.200000000000000000e+02 2.140477608379988510e+02
5.210000000000000000e+02 1.745388870566270043e+02
5.220000000000000000e+02 2.127202725217742909e+02
5.230000000000000000e+02 1.700391716241474001e+02
5.240000000000000000e+02 1.280771417963063925e+02
5.250000000000000000e+02 1.028643501866455523e+02
5.260000000000000000e+02 8.735954514830955020e+01
5.270000000000000000e+02 8.647027110143136497e+01
5.280000000000000000e+02 8.413630530180454059e+01
5.290000000000000000e+02 9.189179120929247802e+01
5.300000000000000000e+02 8.502068769964787975e+01
5.310000000000000000e+02 8.088883104127775425e+01
5.320000000000000000e+02 1.064543991910392009e+02
5.330000000000000000e+02 9.901075240406557043e+01
5.340000000000000000e+02 7.445336297448605478e+01
5.350000000000000000e+02 6.233024116365895395e+01
5.360000000000000000e+02 6.830291688238980896e+01
5.370000000000000000e+02 7.231030650280003158e+01
5.380000000000000000e+02 5.074006629537343827e+01
5.390000000000000000e+02 2.736345679593542002e+01
5.400000000000000000e+02 4.579055641153133394e+01
5.410000000000000000e+02 6.712921790914754183e+01
5.420000000000000000e+02 6.187044074673351446e+01
5.430000000000000000e+02 4.516063712507808958e+01
5.440000000000000000e+02 4.049135388301169058e+01
5.450000000000000000e+02 5.548703750881550434e+01
5.460000000000000000e+02 4.807538297448679288e+01
5.470000000000000000e+02 4.250775132337668794e+01
5.480000000000000000e+02 5.753291794648405499e+01
5.490000000000000000e+02 3.015043905206361430e+01
5.500000000000000000e+02 7.088783148724397165e+01
5.510000000000000000e+02 4.637227761667438131e+01
5.520000000000000000e+02 7.927575828665421653e+00
5.530000000000000000e+02 6.792316215470887819e+00
5.540000000000000000e+02 1.757203346401302468e+01
5.550000000000000000e+02 5.389075302426962111e+01
5.560000000000000000e+02 6.369870964330127094e+01
5.570000000000000000e+02 4.410634420452291238e+01
5.580000000000000000e+02 2.669496940676214791e+01
5.590000000000000000e+02 2.275166258813693432e+01
5.600000000000000000e+02 4.005688105164800561e+00
5.610000000000000000e+02 1.512337880211533303e+01
5.620000000000000000e+02 4.904916509332239372e+01
5.630000000000000000e+02 3.631422272972362464e+01
5.640000000000000000e+02 5.242325659614187394e+00
5.650000000000000000e+02 6.614973895271750060e+00
5.660000000000000000e+02 2.682527135448986400e+01
5.670000000000000000e+02 4.688198574362277782e+01
5.680000000000000000e+02 5.456998824102623047e+01
5.690000000000000000e+02 9.584146866833577860e+00
5.700000000000000000e+02 3.087839096867840283e+01
5.710000000000000000e+02 9.914584565443240294e+00
5.720000000000000000e+02 4.879572246214542730e+01
5.730000000000000000e+02 2.756655499066615178e+01
5.740000000000000000e+02 6.897613675171120917e+01
5.750000000000000000e+02 4.337750116365996433e+01
5.760000000000000000e+02 7.239985986517308625e+00
5.770000000000000000e+02 1.691207673802124489e+01
5.780000000000000000e+02 2.761573364032359024e+01
5.790000000000000000e+02 1.633261492221529210e+01
5.800000000000000000e+02 4.127328143953588047e+00
5.810000000000000000e+02 6.955945669570658296e+00
5.820000000000000000e+02 6.474483178556558194e+00
5.830000000000000000e+02 1.652850571250798595e+01
5.840000000000000000e+02 1.501647091889641850e+01
5.850000000000000000e+02 2.626711625881329226e+00
5.860000000000000000e+02 2.493152401576496402e+01
5.870000000000000000e+02 7.775023046670816029e+01
5.880000000000000000e+02 8.865914976358354238e+01
5.890000000000000000e+02 4.931983554656682145e+01
5.900000000000000000e+02 3.222861564405723556e+01
5.910000000000000000e+02 4.226637452924110505e+01
5.920000000000000000e+02 5.160359935905412243e+01
5.930000000000000000e+02 4.232309157851069870e+01
5.940000000000000000e+02 3.883891885293496671e+01
5.950000000000000000e+02 2.087182371914542500e+01
5.960000000000000000e+02 3.785261704418115869e+01
5.970000000000000000e+02 5.990270920970746715e+01
5.980000000000000000e+02 4.184975783032570718e+01
5.990000000000000000e+02 3.537421017216362173e+01
6.000000000000000000e+02 1.277738505683468340e+01
6.010000000000000000e+02 4.936943419950264911e+01
6.020000000000000000e+02 7.226588470441807033e+01
6.030000000000000000e+02 5.983281031528730409e+01
6.040000000000000000e+02 6.083670869763582090e+01
6.050000000000000000e+02 5.219433559842354953e+01
6.060000000000000000e+02 4.332823474797766039e+01
6.070000000000000000e+02 7.051838293092747278e+01
6.080000000000000000e+02 9.235884439950220326e+01
6.090000000000000000e+02 7.932486334992712784e+01
6.100000000000000000e+02 7.059654165318413277e+01
6.110000000000000000e+02 1.189519620410701606e+02
6.120000000000000000e+02 7.259757044389243674e+01
6.130000000000000000e+02 5.501276467745279319e+01
6.140000000000000000e+02 8.770822815805819062e+01
6.150000000000000000e+02 1.125975482265085930e+02
6.160000000000000000e+02 1.265252000622277393e+02
6.170000000000000000e+02 1.152235602572082911e+02
6.180000000000000000e+02 9.197009232524433742e+01
6.190000000000000000e+02 1.080413594980291236e+02
6.200000000000000000e+02 1.226422515245806153e+02
6.210000000000000000e+02 8.124475761924601613e+01
6.220000000000000000e+02 5.915236127981763303e+01
6.230000000000000000e+02 9.635320207011014304e+01
6.240000000000000000e+02 9.279254187512978547e+01
6.250000000000000000e+02 1.001865797884248366e+02
6.260000000000000000e+02 1.376301929267793867e+02
6.270000000000000000e+02 1.448989323169468548e+02
6.280000000000000000e+02 1.090443429786358820e+02
6.290000000000000000e+02 8.505424230865008894e+01
6.300000000000000000e+02 9.508217637212160867e+01
6.310000000000000000e+02 1.227271247666452609e+02
6.320000000000000000e+02 1.420029500103707676e+02
6.330000000000000000e+02 1.492944969093548195e+02
6.340000000000000000e+02 1.370753717485996788e+02
6.350000000000000000e+02 1.573703095396099059e+02
6.360000000000000000e+02 1.345686389960588372e+02
6.370000000000000000e+02 1.181189401991288292e+02
6.380000000000000000e+02 1.601145700331796320e+02
6.390000000000000000e+02 1.961500971997511726e+02
6.400000000000000000e+02 1.766625672474586679e+02
6.410000000000000000e+02 1.845991628784728960e+02
6.420000000000000000e+02 1.991882639908729686e+02
6.430000000000000000e+02 2.367835971997481579e+02
6.440000000000000000e+02 2.762034252384904107e+02
6.450000000000000000e+02 2.286991146650086080e+02
6.460000000000000000e+02 2.703113165733227561e+02
6.470000000000000000e+02 2.707408514416101184e+02
6.480000000000000000e+02 2.453401270690732474e+02
6.490000000000000000e+02 2.585962741339948252e+02
6.500000000000000000e+02 3.229661688031527547e+02
6.510000000000000000e+02 3.437299116573323090e+02
6.520000000000000000e+02 3.816583390790289627e+02
6.530000000000000000e+02 4.275120291225894675e+02
6.540000000000000000e+02 4.646106820369222987e+02
6.550000000000000000e+02 4.951051628707740520e+02
6.560000000000000000e+02 5.558964470856708431e+02
6.570000000000000000e+02 6.948743708774162542e+02
6.580000000000000000e+02 7.718932472930951008e+02
6.590000000000000000e+02 8.624154738021111370e+02
6.600000000000000000e+02 9.802260006844986719e+02
6.610000000000000000e+02 1.158885984446301109e+03
6.620000000000000000e+02 1.460420075917845907e+03
6.630000000000000000e+02 1.866001060153486605e+03
6.640000000000000000e+02 2.074100162173365788e+03
6.650000000000000000e+02 2.415021691972614917e+03
6.660000000000000000e+02 2.886975616677031667e+03
6.670000000000000000e+02 3.381038361675653050e+03
6.680000000000000000e+02 3.895892437875965697e+03
6.690000000000000000e+02 4.538550601949808879e+03
6.700000000000000000e+02 5.194557198672768209e+03
6.710000000000000000e+02 5.994041368388328920e+03
6.720000000000000000e+02 6.822250353453664502e+03
6.730000000000000000e+02 7.584651441518081811e+03
6.740000000000000000e+02 8.293685152250605825e+03
6.750000000000000000e+02 8.934925751089002006e+03
6.760000000000000000e+02 9.201930464219041824e+03
6.770000000000000000e+02 9.102015767890492498e+03
6.780000000000000000e+02 8.544869118647553478e+03
6.790000000000000000e+02 7.583368431238351150e+03
6.800000000000000000e+02 6.409623903547003465e+03
6.810000000000000000e+02 5.209748625388945584e+03
6.820000000000000000e+02 4.154604846919722149e+03
6.830000000000000000e+02 3.344017369632853843e+03
6.840000000000000000e+02 2.728480158680770273e+03
6.850000000000000000e+02 2.244196187305526564e+03
6.860000000000000000e+02 1.854947371292254047e+03
6.870000000000000000e+02 1.537217098112417943e+03
6.880000000000000000e+02 1.313027611906234824e+03
6.890000000000000000e+02 1.072131235532041046e+03
6.900000000000000000e+02 9.013049733513037154e+02
6.910000000000000000e+02 7.670258621655199249e+02
6.920000000000000000e+02 6.347915117195586845e+02
6.930000000000000000e+02 5.867252031107406083e+02
6.940000000000000000e+02 5.059977136901075596e+02
6.950000000000000000e+02 4.726241293092716091e+02
6.960000000000000000e+02 4.449247181667346922e+02
6.970000000000000000e+02 3.726455342874924668e+02
6.980000000000000000e+02 2.791213742999380543e+02
6.990000000000000000e+02 2.351503757776851842e+02
7.000000000000000000e+02 2.463298749637006608e+02
7.010000000000000000e+02 1.469822155776801083e+02
7.020000000000000000e+02 1.361776828251413463e+02
7.030000000000000000e+02 1.377857998755432902e+02
7.040000000000000000e+02 9.624030845882612084e+01
7.050000000000000000e+02 1.095489841319227935e+02
7.060000000000000000e+02 9.925790137730739104e+01
7.070000000000000000e+02 8.519667418170494955e+01
7.080000000000000000e+02 6.385669431860557665e+01
7.090000000000000000e+02 5.956041200788234136e+01
7.100000000000000000e+02 4.672256180460477282e+01
7.110000000000000000e+02 6.813652283966027845e+00
7.120000000000000000e+02 3.076266219041773553e+00
7.130000000000000000e+02 8.512920516905181145e+00
7.140000000000000000e+02 1.323718331466497133e+01
7.150000000000000000e+02 8.123652783862224780e+00
7.160000000000000000e+02 1.154104236748226953e+01
7.170000000000000000e+02 3.412349902302406690e+01
7.180000000000000000e+02 8.961900190831782353e+00
7.190000000000000000e+02 5.545632864371638604e+00
7.200000000000000000e+02 2.514841083385208620e+01
7.210000000000000000e+02 1.533740473304313845e+01
7.220000000000000000e+02 1.337092539195355023e+01
7.230000000000000000e+02 1.843387990250986874e+01
7.240000000000000000e+02 2.815454933623729161e+01
7.250000000000000000e+02 3.681206423060928934e+00
7.260000000000000000e+02 3.667664624766641346e+00
7.270000000000000000e+02 7.433344376062930081e+00
7.280000000000000000e+02 1.706394601534949373e+01
7.290000000000000000e+02 2.131783319643243502e+01
7.300000000000000000e+02 3.064161472557531241e+01
7.310000000000000000e+02 2.302711055382699712e+01
7.320000000000000000e+02 8.736749363202608976e+00
7.330000000000000000e+02 1.908302380626401273e+01
7.340000000000000000e+02 4.604470340178363585e+01
7.350000000000000000e+02 6.878293755444931890e+01
7.360000000000000000e+02 5.611468949595563060e+01
7.370000000000000000e+02 4.423114393694252300e+01
7.380000000000000000e+02 6.675274002074220903e+01
7.390000000000000000e+02 1.056813249222373940e+01
7.400000000000000000e+02 1.959600188238925256e+01
7.410000000000000000e+02 6.571068232109523422e+01
7.420000000000000000e+02 6.648424353453631852e+01
7.430000000000000000e+02 4.313667166735744729e+01
7.440000000000000000e+02 9.162021454055171432e+01
7.450000000000000000e+02 9.915516706907303046e+01
7.460000000000000000e+02 6.292938925756999424e+01
7.470000000000000000e+02 4.781148015556929920e+01
7.480000000000000000e+02 4.924584607135493286e+01
7.490000000000000000e+02 3.239674211115712410e+01
7.500000000000000000e+02 5.876450632856230527e+01
7.510000000000000000e+02 6.842859212818905235e+01
7.520000000000000000e+02 8.182412294276220166e+01
7.530000000000000000e+02 8.556796518564618736e+01
7.540000000000000000e+02 9.877158278157996563e+01
7.550000000000000000e+02 1.183193484131923583e+02
7.560000000000000000e+02 9.086250844638050239e+01
7.570000000000000000e+02 8.588462350134804524e+01
7.580000000000000000e+02 1.625415519601736491e+02
7.590000000000000000e+02 1.351392034847526702e+02
7.600000000000000000e+02 7.223932671644837455e+01
7.610000000000000000e+02 7.894441739887909648e+01
7.620000000000000000e+02 1.220975807301387164e+02
7.630000000000000000e+02 1.092737650902306967e+02
7.640000000000000000e+02 1.125716499688859074e+02
7.650000000000000000e+02 1.253909746525613826e+02
7.660000000000000000e+02 1.230288866210334788e+02
7.670000000000000000e+02 1.162983453432898386e+02
7.680000000000000000e+02 1.177315927193526619e+02
7.690000000000000000e+02 1.220203491082538250e+02
7.700000000000000000e+02 1.198112755652355759e+02
7.710000000000000000e+02 1.067299647168635062e+02
7.720000000000000000e+02 1.747832834093732686e+02
7.730000000000000000e+02 2.159731046670812873e+02
7.740000000000000000e+02 2.266699506119069838e+02
7.750000000000000000e+02 2.803907318332633167e+02
7.760000000000000000e+02 2.906522015349517005e+02
7.770000000000000000e+02 3.153695057871823906e+02
7.780000000000000000e+02 3.939050236001623375e+02
7.790000000000000000e+02 5.099974735531998817e+02
7.800000000000000000e+02 6.086636743414189823e+02
7.810000000000000000e+02 6.664255116549134073e+02
7.820000000000000000e+02 7.185518742377049648e+02
7.830000000000000000e+02 8.542340999792526191e+02
7.840000000000000000e+02 9.713948933208856715e+02
7.850000000000000000e+02 1.128172816635550362e+03
7.860000000000000000e+02 1.203461389545737802e+03
7.870000000000000000e+02 1.186046229620410486e+03
7.880000000000000000e+02 1.159288868492013989e+03
7.890000000000000000e+02 1.129304010578717907e+03
7.900000000000000000e+02 1.110400250985272351e+03
7.910000000000000000e+02 1.089081707529557661e+03
7.920000000000000000e+02 1.079192670607757691e+03
7.930000000000000000e+02 1.071332715411739855e+03
7.940000000000000000e+02 1.035174674133994813e+03
7.950000000000000000e+02 9.373435612608800511e+02
7.960000000000000000e+02 7.693773347853207270e+02
7.970000000000000000e+02 6.280310833644530248e+02
7.980000000000000000e+02 5.034433933015287153e+02
7.990000000000000000e+02 3.541220524994846528e+02
8.000000000000000000e+02 2.823588575606712539e+02
8.010000000000000000e+02 2.970833226876815729e+02
8.020000000000000000e+02 2.510012029661896804e+02
8.030000000000000000e+02 1.406747927400955973e+02
8.040000000000000000e+02 1.161704729780173295e+02
8.050000000000000000e+02 7.165718991910279101e+01
8.060000000000000000e+02 6.179039404273021319e+01
8.070000000000000000e+02 6.580653097469897261e+01
8.080000000000000000e+02 4.728613605890805616e+01
8.090000000000000000e+02 3.555631677660354484e+01
8.100000000000000000e+02 7.075599641568042841e+01
8.110000000000000000e+02 7.778594837378054194e+01
8.120000000000000000e+02 3.727038403443133774e+01
8.130000000000000000e+02 2.438519069072762591e+01
8.140000000000000000e+02 2.406215784692050264e+01
8.150000000000000000e+02 4.919240603816346535e+00
8.160000000000000000e+02 4.789272552582367837e+00
8.170000000000000000e+02 2.288380710226083892e+01
8.180000000000000000e+02 2.026943119477294175e+01
8.190000000000000000e+02 2.422172379589309088e+01
8.200000000000000000e+02 2.612091148724329059e+01
8.210000000000000000e+02 3.967717846504420720e+00
8.220000000000000000e+02 1.513651324870297366e+01
8.230000000000000000e+02 2.345649158058531469e+01
8.240000000000000000e+02 2.918187314392342557e+01
8.250000000000000000e+02 9.589008362372258176e+00
8.260000000000000000e+02 2.168558172578354970e+01
8.270000000000000000e+02 2.547782005391917082e+01
8.280000000000000000e+02 8.259042592407750405e+00
8.290000000000000000e+02 1.153691900020725303e+00
8.300000000000000000e+02 3.515205308585878097e+00
8.310000000000000000e+02 2.303776527898758530e+01
8.320000000000000000e+02 1.405029299937795351e+01
8.330000000000000000e+02 2.565758774782298701e+01
8.340000000000000000e+02 1.139070197261947470e+01
8.350000000000000000e+02 9.647781039411000847e+00
8.360000000000000000e+02 3.660583300767359560e+01
8.370000000000000000e+02 2.547425755445078366e+01
8.380000000000000000e+02 1.195697290603607996e+02
8.390000000000000000e+02 4.065305970337937680e+01
8.400000000000000000e+02 1.647494061190657533e+01
8.410000000000000000e+02 6.591911377722469467e+01
8.420000000000000000e+02 7.054356785314121225e+01
8.430000000000000000e+02 1.835465047707928221e+01
8.440000000000000000e+02 2.243115758348882238e+01
8.450000000000000000e+02 6.445656786973694352e+01
8.460000000000000000e+02 5.519294576228990934e+01
8.470000000000000000e+02 2.651644859365296014e+01
8.480000000000000000e+02 3.512005219871401351e+01
8.490000000000000000e+02 4.186071118232730726e+01
8.500000000000000000e+02 4.269129790958053405e+01
8.510000000000000000e+02 9.118975353453645027e+01
8.520000000000000000e+02 8.228946475834919738e+01
8.530000000000000000e+02 1.206653631024495610e+01
8.540000000000000000e+02 2.757439495125495910e+01
8.550000000000000000e+02 5.234790626633475341e+01
8.560000000000000000e+02 5.276406916424721771e+01
8.570000000000000000e+02 5.275807031113875922e+01
8.580000000000000000e+02 5.420435104542628579e+01
8.590000000000000000e+02 5.565642870178344026e+01
8.600000000000000000e+02 9.224566801493439527e+01
8.610000000000000000e+02 8.766530561086941020e+01
8.620000000000000000e+02 8.534162707382827762e+01
8.630000000000000000e+02 9.635226010786136897e+01
8.640000000000000000e+02 1.064513906036091839e+02
8.650000000000000000e+02 1.006652089981333233e+02
8.660000000000000000e+02 8.399017689068696768e+01
8.670000000000000000e+02 1.220949824725166053e+02
8.680000000000000000e+02 1.423547455922007998e+02
8.690000000000000000e+02 1.013742690230253629e+02
8.700000000000000000e+02 8.629568677037882196e+01
8.710000000000000000e+02 1.124043356979875909e+02
8.720000000000000000e+02 1.304768003526237408e+02
8.730000000000000000e+02 1.319222089607964108e+02
8.740000000000000000e+02 1.371030920970752902e+02
8.750000000000000000e+02 1.064648207633279640e+02
8.760000000000000000e+02 1.476380864786384564e+02
8.770000000000000000e+02 1.259030681808758629e+02
8.780000000000000000e+02 1.255275240199118088e+02
8.790000000000000000e+02 1.778382606180009304e+02
8.800000000000000000e+02 1.573253935490559456e+02
8.810000000000000000e+02 1.312576324414020235e+02
8.820000000000000000e+02 1.181662348682846755e+02
8.830000000000000000e+02 1.202135165698877728e+02
8.840000000000000000e+02 1.670534550715610180e+02
8.850000000000000000e+02 1.748408955610877911e+02
8.860000000000000000e+02 1.456397520530902625e+02
8.870000000000000000e+02 1.296424519809172580e+02
8.880000000000000000e+02 1.116910583696329695e+02
8.890000000000000000e+02 1.585476690792196450e+02
8.900000000000000000e+02 1.645361886123210411e+02
8.910000000000000000e+02 1.728347170918896154e+02
8.920000000000000000e+02 1.662028020950008624e+02
8.930000000000000000e+02 1.352604324206593844e+02
8.940000000000000000e+02 1.104300210537233085e+02
8.950000000000000000e+02 1.170731055797550795e+02
8.960000000000000000e+02 1.157838682223600699e+02
8.970000000000000000e+02 7.294212353453592357e+01
8.980000000000000000e+02 1.191118493590524281e+02
8.990000000000000000e+02 1.295937109935707667e+02
9.000000000000000000e+02 1.013891662601131713e+02
9.010000000000000000e+02 8.354462765608830921e+01
9.020000000000000000e+02 8.312627354075894459e+01
9.030000000000000000e+02 9.579389071339927852e+01
9.040000000000000000e+02 5.516089838207754070e+01
9.050000000000000000e+02 1.275870363617504353e+02
9.060000000000000000e+02 7.718979743674978522e+01
9.070000000000000000e+02 4.446312072184195330e+01
9.080000000000000000e+02 7.368426679941917712e+01
9.090000000000000000e+02 8.317358465781812527e+01
9.100000000000000000e+02 6.058468085044550833e+01
9.110000000000000000e+02 5.263687303671464690e+01
9.120000000000000000e+02 8.479867786602954993e+01
9.130000000000000000e+02 6.812159230449968561e+01
9.140000000000000000e+02 5.417844286662496955e+01
9.150000000000000000e+02 4.255490977187963608e+01
9.160000000000000000e+02 3.874515542003701540e+01
9.170000000000000000e+02 3.108236874673603722e+01
9.180000000000000000e+02 1.881355731176044088e+01
9.190000000000000000e+02 2.186273936320400679e+01
9.200000000000000000e+02 4.836833518357086348e+01
9.210000000000000000e+02 2.183333102302453810e+01
9.220000000000000000e+02 1.125621953391398300e+01
9.230000000000000000e+02 2.948570985687604917e+01
9.240000000000000000e+02 4.173946719145421724e+01
9.250000000000000000e+02 5.844385177971419409e+01
9.260000000000000000e+02 6.604265864550883691e+01
9.270000000000000000e+02 1.413983333125870701e+01
9.280000000000000000e+02 1.062323142086725447e+01
9.290000000000000000e+02 6.651326535158909792e+01
9.300000000000000000e+02 6.752792677660440290e+01
9.310000000000000000e+02 2.615630135034043846e+01
9.320000000000000000e+02 1.482373810037484496e+01
9.330000000000000000e+02 4.040923831570272284e+01
9.340000000000000000e+02 2.110047469819594568e+01
9.350000000000000000e+02 1.308741902115336941e+01
9.360000000000000000e+02 2.903965064924296513e+01
9.370000000000000000e+02 2.975286479838096199e+01
9.380000000000000000e+02 1.948963843011193831e+01
9.390000000000000000e+02 1.953960324828876338e+01
9.400000000000000000e+02 6.502181967848832400e+00
9.410000000000000000e+02 1.993170769390289365e+01
9.420000000000000000e+02 2.337154569259637782e+01
9.430000000000000000e+02 6.992813714997004126e+01
9.440000000000000000e+02 6.256983971374987163e+01
9.450000000000000000e+02 9.617392766855390462e+00
9.460000000000000000e+02 1.203280153702565691e+01
9.470000000000000000e+02 1.357802923377024840e+01
9.480000000000000000e+02 1.097410056876304019e+01
9.490000000000000000e+02 5.109911526861705511e+01
9.500000000000000000e+02 6.592081997096029511e+01
9.510000000000000000e+02 6.841189984650476674e+01
9.520000000000000000e+02 9.758951741754795250e+01
9.530000000000000000e+02 2.989395060360887157e+01
9.540000000000000000e+02 1.750992818626849257e+01
9.550000000000000000e+02 6.288041278987764571e+01
9.560000000000000000e+02 6.392943221115879027e+01
9.570000000000000000e+02 2.612410668326118213e+01
9.580000000000000000e+02 5.153783696391583646e+01
9.590000000000000000e+02 8.163018543248317371e+01
9.600000000000000000e+02 8.254976875544504367e+01
9.610000000000000000e+02 9.929828685192887860e+01
9.620000000000000000e+02 8.326786112632150605e+01
9.630000000000000000e+02 6.856048539929533092e+01
9.640000000000000000e+02 9.645766187681473980e+01
9.650000000000000000e+02 7.623081652769189986e+01
9.660000000000000000e+02 7.504117928438074614e+01
9.670000000000000000e+02 7.483963399833996277e+01
9.680000000000000000e+02 9.153085047293090781e+01
9.690000000000000000e+02 9.528180142086712578e+01
9.700000000000000000e+02 1.088119075922860333e+02
9.710000000000000000e+02 1.057096192283760843e+02
9.720000000000000000e+02 9.019058559220079019e+01
9.730000000000000000e+02 1.148842359883838498e+02
9.740000000000000000e+02 1.202625804812280137e+02
9.750000000000000000e+02 1.013373940634720896e+02
9.760000000000000000e+02 1.099265777100180088e+02
9.770000000000000000e+02 1.096044710640944970e+02
9.780000000000000000e+02 1.294906380004143500e+02
9.790000000000000000e+02 1.424417982991078588e+02
9.800000000000000000e+02 1.233021805849409134e+02
9.810000000000000000e+02 1.303917129641150723e+02
9.820000000000000000e+02 1.459569980294544678e+02
9.830000000000000000e+02 1.210640120099565564e+02
9.840000000000000000e+02 1.323951723351305247e+02
9.850000000000000000e+02 1.329227850031114144e+02
9.860000000000000000e+02 9.314623473760597960e+01
9.870000000000000000e+02 9.648812256325119563e+01
9.880000000000000000e+02 1.570597159925323183e+02
9.890000000000000000e+02 1.773322164281278503e+02
9.900000000000000000e+02 1.346800544172540128e+02
9.910000000000000000e+02 1.626875771831569466e+02
9.920000000000000000e+02 1.465919045426264802e+02
9.930000000000000000e+02 1.190847910618003311e+02
9.940000000000000000e+02 9.900536532669588041e+01
9.950000000000000000e+02 1.171296058079229709e+02
9.960000000000000000e+02 1.464264916632100437e+02
9.970000000000000000e+02 1.447285583074054500e+02
9.980000000000000000e+02 1.253511644057245178e+02
9.990000000000000000e+02 1.242415532607338804e+02
1.000000000000000000e+03 6.862313487243309851e+01
1.001000000000000000e+03 9.815208342323469992e+01
1.002000000000000000e+03 1.649592286307068605e+02
1.003000000000000000e+03 1.547790236514522064e+02
1.004000000000000000e+03 1.318452261410788253e+02
1.005000000000000000e+03 1.400785340248964417e+02
1.006000000000000000e+03 1.490587502074689041e+02
1.007000000000000000e+03 1.551524076763494691e+02
1.008000000000000000e+03 1.808400103734437323e+02
1.009000000000000000e+03 1.740419512448128785e+02
1.010000000000000000e+03 1.707604690871369542e+02
1.011000000000000000e+03 1.487959688796669866e+02
1.012000000000000000e+03 2.089728780083005972e+02
1.013000000000000000e+03 2.452466228215773754e+02
1.014000000000000000e+03 2.153353149377580280e+02
1.015000000000000000e+03 1.540916082987553466e+02
1.016000000000000000e+03 2.304992350622408992e+02
1.017000000000000000e+03 1.586508786307060177e+02
1.018000000000000000e+03 1.520039738589209435e+02
1.019000000000000000e+03 1.491857645962683421e+02
1.020000000000000000e+03 1.736900850622406551e+02
1.021000000000000000e+03 1.773313813277981978e+02
1.022000000000000000e+03 1.946702224066384019e+02
1.023000000000000000e+03 1.818284712215341585e+02
1.024000000000000000e+03 1.251312041493736444e+02
1.025000000000000000e+03 1.897132313277954268e+02
1.026000000000000000e+03 1.892378622406630200e+02
1.027000000000000000e+03 1.156790010351938065e+02
1.028000000000000000e+03 1.596931473028951700e+02
1.029000000000000000e+03 1.577721925311153939e+02
1.030000000000000000e+03 1.134316751037323314e+02
1.031000000000000000e+03 1.329376008281598729e+02
1.032000000000000000e+03 1.294642954356807536e+02
1.033000000000000000e+03 8.517516556017449147e+01
1.034000000000000000e+03 1.069063634854775273e+02
1.035000000000000000e+03 1.408397582987581416e+02
1.036000000000000000e+03 1.301902535269667567e+02
1.037000000000000000e+03 6.270741887966724448e+01
1.038000000000000000e+03 1.255727195020694325e+02
1.039000000000000000e+03 6.012021609959172963e+01
1.040000000000000000e+03 1.008354806431516693e+02
1.041000000000000000e+03 6.620333261410807779e+01
1.042000000000000000e+03 8.963157717843121475e+01
1.043000000000000000e+03 1.146238968672303287e+02
1.044000000000000000e+03 6.368886211618065829e+01
1.045000000000000000e+03 5.769631497925428221e+01
1.046000000000000000e+03 4.788611568464344259e+01
1.047000000000000000e+03 7.594909489626468257e+01
1.048000000000000000e+03 8.806997995850646532e+01
1.049000000000000000e+03 8.940641143153494852e+01
1.050000000000000000e+03 9.811669946057938319e+01
1.051000000000000000e+03 1.303795215767624143e+02
1.052000000000000000e+03 1.511356547717808212e+02
1.053000000000000000e+03 9.877625195021056470e+01
1.054000000000000000e+03 7.554481692946188787e+01
1.055000000000000000e+03 5.189709103734440276e+01
1.056000000000000000e+03 8.304429142857138402e+01
1.057000000000000000e+03 7.307943643153770097e+01
1.058000000000000000e+03 5.433616334024898009e+01
1.059000000000000000e+03 4.466637599584980478e+01
1.060000000000000000e+03 4.495019587991663457e+01
1.061000000000000000e+03 4.701564136929549420e+01
1.062000000000000000e+03 1.794395979253104301e+01
1.063000000000000000e+03 6.287408908713894107e+01
1.064000000000000000e+03 4.932228361000870365e+00
1.065000000000000000e+03 7.551182568464736278e+01
1.066000000000000000e+03 2.940182621368881399e+01
1.067000000000000000e+03 4.443174734439834239e+00
1.068000000000000000e+03 2.716895186721837518e+01
1.069000000000000000e+03 2.396235659751174651e+01
1.070000000000000000e+03 4.893570381742660658e+01
1.071000000000000000e+03 4.985499423236708694e+00
1.072000000000000000e+03 2.035567580912858432e+01
1.073000000000000000e+03 2.442183331949986069e+01
1.074000000000000000e+03 4.177088192945430478e+01
1.075000000000000000e+03 7.982428518672162454e+01
1.076000000000000000e+03 2.639283363070240540e+01
1.077000000000000000e+03 3.782043623235811225e+01
1.078000000000000000e+03 6.330643846473180503e+01
1.079000000000000000e+03 2.931263439833984918e+01
1.080000000000000000e+03 3.093340796681106752e+01
1.081000000000000000e+03 1.014504623443963283e+02
1.082000000000000000e+03 9.679784024896326855e+01
1.083000000000000000e+03 1.484751729252913854e+01
1.084000000000000000e+03 4.532665344398504104e+00
1.085000000000000000e+03 2.526074142857044791e+01
1.086000000000000000e+03 5.039381892116260531e+01
1.087000000000000000e+03 9.221776045643707675e+01
1.088000000000000000e+03 8.669229543568913243e+01
1.089000000000000000e+03 6.033259093167704634e+01
1.090000000000000000e+03 8.169232062240573100e+01
1.091000000000000000e+03 2.202117883817920330e+01
1.092000000000000000e+03 3.529729008298804160e+01
1.093000000000000000e+03 1.516955542857063932e+01
1.094000000000000000e+03 1.684035427385797945e+01
1.095000000000000000e+03 4.162670854771243967e+01
1.096000000000000000e+03 9.769069435684640723e+01
1.097000000000000000e+03 1.034725979296057545e+02
1.098000000000000000e+03 1.066484649377574385e+02
1.099000000000000000e+03 9.686506692946201724e+01
1.100000000000000000e+03 5.097393616182517917e+01
1.101000000000000000e+03 7.127142913043277872e+01
1.102000000000000000e+03 1.380200609958485245e+02
1.103000000000000000e+03 1.189382045643148444e+02
1.104000000000000000e+03 4.728195900414399944e+01
1.105000000000000000e+03 7.745784155278941796e+01
1.106000000000000000e+03 1.279662904564314374e+02
1.107000000000000000e+03 1.026329995850590677e+02
1.108000000000000000e+03 9.094183078838591427e+01
1.109000000000000000e+03 1.423278686721984911e+02
1.110000000000000000e+03 1.345136012448121789e+02
1.111000000000000000e+03 9.686508406638762381e+01
1.112000000000000000e+03 8.781982676348401640e+01
1.113000000000000000e+03 1.231988253112029099e+02
1.114000000000000000e+03 9.018573350622081364e+01
1.115000000000000000e+03 9.693910047717702128e+01
1.116000000000000000e+03 1.028797390041499540e+02
1.117000000000000000e+03 1.160357101659756438e+02
1.118000000000000000e+03 1.376050507246390850e+02
1.119000000000000000e+03 1.387712892116186083e+02
1.120000000000000000e+03 1.338257381742738801e+02
1.121000000000000000e+03 1.301818178423231984e+02
1.122000000000000000e+03 1.342895792960686094e+02
1.123000000000000000e+03 1.704878912863073310e+02
1.124000000000000000e+03 1.240740317427370059e+02
1.125000000000000000e+03 1.453349682572656718e+02
1.126000000000000000e+03 1.467797130434800295e+02
1.127000000000000000e+03 1.208640008298752662e+02
1.128000000000000000e+03 1.400584290456472161e+02
1.129000000000000000e+03 1.997533153526943579e+02
1.130000000000000000e+03 1.945357867494832362e+02
1.131000000000000000e+03 1.130084790456413515e+02
1.132000000000000000e+03 1.573666329875452448e+02
1.133000000000000000e+03 9.467518375518531570e+01
1.134000000000000000e+03 1.398462898550726550e+02
1.135000000000000000e+03 1.347131016597487303e+02
1.136000000000000000e+03 1.106317522821586294e+02
1.137000000000000000e+03 1.251734485477171148e+02
1.138000000000000000e+03 1.404721568464726715e+02
1.139000000000000000e+03 1.091102669087134132e+02
1.140000000000000000e+03 7.041459628630751411e+01
1.141000000000000000e+03 9.271985435684740651e+01
1.142000000000000000e+03 1.469047809128658173e+02
1.143000000000000000e+03 1.405281141078854432e+02
1.144000000000000000e+03 7.498353248962678208e+01
1.145000000000000000e+03 1.264988873029085852e+02
1.146000000000000000e+03 5.981511087137573668e+01
1.147000000000000000e+03 4.384361539418994624e+01
1.148000000000000000e+03 8.051446539419156068e+01
1.149000000000000000e+03 6.567204031120128604e+01
1.150000000000000000e+03 6.359137680497310186e+01
1.151000000000000000e+03 1.076933508695653074e+02
1.152000000000000000e+03 5.393891834024331899e+01
1.153000000000000000e+03 1.047459109543403954e+01
1.154000000000000000e+03 7.299689070539329805e+01
1.155000000000000000e+03 3.113300490683023014e+01
1.156000000000000000e+03 5.589548639003820085e+01
1.157000000000000000e+03 4.783665363070693388e+01
1.158000000000000000e+03 7.515654665975114312e+01
1.159000000000000000e+03 7.685594410788074526e+01
1.160000000000000000e+03 3.701299340249244096e+01
1.161000000000000000e+03 2.324355394190818913e+01
1.162000000000000000e+03 4.480558157676399134e+01
1.163000000000000000e+03 4.978895950310525365e+01
1.164000000000000000e+03 4.269343236514501427e+01
1.165000000000000000e+03 5.118505466804990789e+01
1.166000000000000000e+03 4.984350315352605065e+01
1.167000000000000000e+03 2.047736093361266541e+01
1.168000000000000000e+03 4.520837875518691540e+00
1.169000000000000000e+03 3.753695045643430461e+01
1.170000000000000000e+03 7.474940410788170198e+01
1.171000000000000000e+03 4.252931294606197810e+01
1.172000000000000000e+03 1.457936135062305993e+01
1.173000000000000000e+03 1.478397943983146234e+01
1.174000000000000000e+03 9.778390966805179829e+00
1.175000000000000000e+03 7.525751151452195309e+00
1.176000000000000000e+03 1.226396286307026351e+01
1.177000000000000000e+03 1.137383477593065528e+01
1.178000000000000000e+03 4.995063576763457291e+01
1.179000000000000000e+03 4.460063875518917342e+01
1.180000000000000000e+03 3.151653428571383841e+01
1.181000000000000000e+03 3.052555029046013857e+01
1.182000000000000000e+03 1.958140949170128309e+01
1.183000000000000000e+03 1.315350516389784730e+01
1.184000000000000000e+03 2.873436149068481171e+01
1.185000000000000000e+03 2.241332867219914871e+00
1.186000000000000000e+03 5.735068721991599006e+01
1.187000000000000000e+03 9.654365149385977674e+00
1.188000000000000000e+03 9.307534188796590513e+01
1.189000000000000000e+03 1.984906070539548750e+01
1.190000000000000000e+03 3.188702655601420588e+01
1.191000000000000000e+03 4.929258944399771281e+01
1.192000000000000000e+03 6.040092761904748642e+01
1.193000000000000000e+03 7.642769514522544227e+01
1.194000000000000000e+03 8.287340688796457755e+01
1.195000000000000000e+03 9.347996390041831205e+01
1.196000000000000000e+03 5.357692149377471935e+01
1.197000000000000000e+03 9.767610047718915212e+01
1.198000000000000000e+03 1.060955466804932428e+02
1.199000000000000000e+03 2.548112163900707117e+01
1.200000000000000000e+03 1.084968779503036842e+02
1.201000000000000000e+03 1.096176924481451209e+02
1.202000000000000000e+03 5.013766941908517794e+01
1.203000000000000000e+03 6.981898763485698112e+01
1.204000000000000000e+03 8.695756051759795469e+01
1.205000000000000000e+03 5.811564800830601740e+01
1.206000000000000000e+03 7.243017499999999131e+01
1.207000000000000000e+03 1.382337730290480238e+02
1.208000000000000000e+03 1.212900514522843878e+02
1.209000000000000000e+03 6.918382169772222312e+01
1.210000000000000000e+03 1.198373053941924411e+02
1.211000000000000000e+03 1.219956174273856533e+02
1.212000000000000000e+03 1.213894107883815821e+02
1.213000000000000000e+03 1.454328966804975494e+02
1.214000000000000000e+03 1.069696498962635900e+02
1.215000000000000000e+03 1.029018192946051755e+02
1.216000000000000000e+03 1.029777168049791669e+02
1.217000000000000000e+03 1.371984917012477752e+02
1.218000000000000000e+03 1.502559585062231520e+02
1.219000000000000000e+03 1.359983908713682297e+02
1.220000000000000000e+03 1.299513746887964203e+02
1.221000000000000000e+03 1.158069503105616889e+02
1.222000000000000000e+03 1.412396734439840884e+02
1.223000000000000000e+03 1.109929699170125446e+02
1.224000000000000000e+03 1.571139732365164150e+02
1.225000000000000000e+03 1.603877257261402178e+02
1.226000000000000000e+03 1.555934896265562770e+02
1.227000000000000000e+03 1.217804742738585162e+02
1.228000000000000000e+03 1.190522556016625231e+02
1.229000000000000000e+03 1.725208459627279183e+02
1.230000000000000000e+03 1.883903112033195271e+02
1.231000000000000000e+03 2.001540514522864100e+02
1.232000000000000000e+03 2.186413020746876157e+02
1.233000000000000000e+03 2.090647428571407715e+02
1.234000000000000000e+03 2.473150414937751975e+02
1.235000000000000000e+03 1.931280082987486821e+02
1.236000000000000000e+03 1.381914576763504101e+02
1.237000000000000000e+03 1.484985925311201811e+02
1.238000000000000000e+03 1.595807798755199656e+02
1.239000000000000000e+03 2.344122433609894358e+02
1.240000000000000000e+03 2.056952139004169737e+02
1.241000000000000000e+03 1.494395409937882846e+02
1.242000000000000000e+03 1.702213095435727155e+02
1.243000000000000000e+03 2.150507867219909031e+02
1.244000000000000000e+03 1.923678195020742123e+02
1.245000000000000000e+03 1.661724493775965072e+02
1.246000000000000000e+03 1.984422977178424503e+02
1.247000000000000000e+03 1.643600269709557153e+02
1.248000000000000000e+03 1.205358373443993543e+02
1.249000000000000000e+03 1.948473831950246620e+02
1.250000000000000000e+03 1.717499459627343015e+02
1.251000000000000000e+03 2.006771609958511817e+02
1.252000000000000000e+03 1.356831962655535335e+02
1.253000000000000000e+03 1.381300170124452791e+02
1.254000000000000000e+03 1.470593836099585019e+02
1.255000000000000000e+03 1.346125867219916756e+02
1.256000000000000000e+03 1.740863910788428086e+02
1.257000000000000000e+03 1.756490253112076516e+02
1.258000000000000000e+03 1.359772481327810851e+02
1.259000000000000000e+03 1.556591991701234861e+02
1.260000000000000000e+03 1.623769589211590869e+02
1.261000000000000000e+03 1.730540082987556616e+02
1.262000000000000000e+03 1.115492993788803489e+02
1.263000000000000000e+03 1.250742668049789614e+02
1.264000000000000000e+03 6.667600854771900742e+01
1.265000000000000000e+03 1.358935981742761783e+02
1.266000000000000000e+03 8.488619296679698323e+01
1.267000000000000000e+03 5.823959721991616334e+01
1.268000000000000000e+03 8.699951323651468726e+01
1.269000000000000000e+03 1.174816755186737112e+02
1.270000000000000000e+03 1.507986608695622124e+02
1.271000000000000000e+03 1.239046176348566206e+02
1.272000000000000000e+03 8.118794419087389258e+01
1.273000000000000000e+03 1.048364084024897522e+02
1.274000000000000000e+03 7.929923381742756305e+01
1.275000000000000000e+03 8.861178385892144149e+01
1.276000000000000000e+03 9.537288253112002678e+01
1.277000000000000000e+03 7.458316219917244894e+01
1.278000000000000000e+03 4.788244626556068795e+01
1.279000000000000000e+03 7.356749095238257041e+01
1.280000000000000000e+03 4.360552358921678717e+01
1.281000000000000000e+03 3.501160246887875971e+00
1.282000000000000000e+03 5.328386748962736164e+01
1.283000000000000000e+03 5.854678344398078593e+01
1.284000000000000000e+03 2.471291979253137683e+01
1.285000000000000000e+03 2.583384402489616605e+01
1.286000000000000000e+03 6.111162925311539595e+01
1.287000000000000000e+03 1.024270134854774881e+02
1.288000000000000000e+03 7.295549248962845468e+01
1.289000000000000000e+03 5.020615493776043081e+01
1.290000000000000000e+03 9.665766682572537150e+01
1.291000000000000000e+03 8.147586993793836996e+00
1.292000000000000000e+03 1.787624423236521665e+01
1.293000000000000000e+03 7.254769668048713704e+00
1.294000000000000000e+03 7.887241647302506209e+00
1.295000000000000000e+03 1.239068320910865140e+01
1.296000000000000000e+03 6.300271624481403876e+01
1.297000000000000000e+03 2.588781683609671802e+01
1.298000000000000000e+03 4.019041740663277551e+01
1.299000000000000000e+03 7.763238349896462864e+01
1.300000000000000000e+03 6.260555265560270044e+01
1.301000000000000000e+03 4.227225763486000432e+01
1.302000000000000000e+03 2.707705883817383086e+00
1.303000000000000000e+03 1.625613645228340687e+01
1.304000000000000000e+03 4.680088234439799066e+01
1.305000000000000000e+03 3.281915105809302702e+01
1.306000000000000000e+03 0.000000000000000000e+00
1.307000000000000000e+03 0.000000000000000000e+00
1.308000000000000000e+03 0.000000000000000000e+00
1.309000000000000000e+03 0.000000000000000000e+00
1.310000000000000000e+03 0.000000000000000000e+00
1.311000000000000000e+03 0.000000000000000000e+00
1.312000000000000000e+03 0.000000000000000000e+00
1.313000000000000000e+03 0.000000000000000000e+00
1.314000000000000000e+03 0.000000000000000000e+00
1.315000000000000000e+03 0.000000000000000000e+00
1.316000000000000000e+03 0.000000000000000000e+00
1.317000000000000000e+03 0.000000000000000000e+00
1.318000000000000000e+03 0.000000000000000000e+00
1.319000000000000000e+03 0.000000000000000000e+00
1.320000000000000000e+03 0.000000000000000000e+00
1.321000000000000000e+03 0.000000000000000000e+00
1.322000000000000000e+03 0.000000000000000000e+00
1.323000000000000000e+03 0.000000000000000000e+00
1.324000000000000000e+03 0.000000000000000000e+00
1.325000000000000000e+03 0.000000000000000000e+00
1.326000000000000000e+03 0.000000000000000000e+00
1.327000000000000000e+03 0.000000000000000000e+00
1.328000000000000000e+03 0.000000000000000000e+00
1.329000000000000000e+03 0.000000000000000000e+00
1.330000000000000000e+03 0.000000000000000000e+00
1.331000000000000000e+03 0.000000000000000000e+00
1.332000000000000000e+03 0.000000000000000000e+00
1.333000000000000000e+03 0.000000000000000000e+00
1.334000000000000000e+03 0.000000000000000000e+00
1.335000000000000000e+03 0.000000000000000000e+00
1.336000000000000000e+03 0.000000000000000000e+00
1.337000000000000000e+03 0.000000000000000000e+00
1.338000000000000000e+03 0.000000000000000000e+00
1.339000000000000000e+03 0.000000000000000000e+00
1.340000000000000000e+03 0.000000000000000000e+00
1.341000000000000000e+03 0.000000000000000000e+00
1.342000000000000000e+03 0.000000000000000000e+00
1.343000000000000000e+03 0.000000000000000000e+00
1.344000000000000000e+03 0.000000000000000000e+00
1.345000000000000000e+03 0.000000000000000000e+00
1.346000000000000000e+03 0.000000000000000000e+00
1.347000000000000000e+03 0.000000000000000000e+00
1.348000000000000000e+03 0.000000000000000000e+00
1.349000000000000000e+03 0.000000000000000000e+00
1.350000000000000000e+03 0.000000000000000000e+00
1.351000000000000000e+03 0.000000000000000000e+00
1.352000000000000000e+03 0.000000000000000000e+00
1.353000000000000000e+03 0.000000000000000000e+00
1.354000000000000000e+03 0.000000000000000000e+00
1.355000000000000000e+03 0.000000000000000000e+00
1.356000000000000000e+03 0.000000000000000000e+00
1.357000000000000000e+03 0.000000000000000000e+00
1.358000000000000000e+03 0.000000000000000000e+00
1.359000000000000000e+03 0.000000000000000000e+00
1.360000000000000000e+03 0.000000000000000000e+00
1.361000000000000000e+03 0.000000000000000000e+00
1.362000000000000000e+03 0.000000000000000000e+00
1.363000000000000000e+03 0.000000000000000000e+00
1.364000000000000000e+03 0.000000000000000000e+00
1.365000000000000000e+03 0.000000000000000000e+00
1.366000000000000000e+03 0.000000000000000000e+00
1.367000000000000000e+03 0.000000000000000000e+00
1.368000000000000000e+03 0.000000000000000000e+00
1.369000000000000000e+03 0.000000000000000000e+00
1.370000000000000000e+03 0.000000000000000000e+00
1.371000000000000000e+03 0.000000000000000000e+00
1.372000000000000000e+03 0.000000000000000000e+00
1.373000000000000000e+03 0.000000000000000000e+00
1.374000000000000000e+03 0.000000000000000000e+00
1.375000000000000000e+03 0.000000000000000000e+00
1.376000000000000000e+03 0.000000000000000000e+00
1.377000000000000000e+03 0.000000000000000000e+00
1.378000000000000000e+03 0.000000000000000000e+00
1.379000000000000000e+03 0.000000000000000000e+00
1.380000000000000000e+03 0.000000000000000000e+00
1.381000000000000000e+03 0.000000000000000000e+00
1.382000000000000000e+03 0.000000000000000000e+00
1.383000000000000000e+03 0.000000000000000000e+00
1.384000000000000000e+03 0.000000000000000000e+00
1.385000000000000000e+03 0.000000000000000000e+00
1.386000000000000000e+03 0.000000000000000000e+00
1.387000000000000000e+03 0.000000000000000000e+00
1.388000000000000000e+03 0.000000000000000000e+00
1.389000000000000000e+03 0.000000000000000000e+00
1.390000000000000000e+03 0.000000000000000000e+00
1.391000000000000000e+03 0.000000000000000000e+00
1.392000000000000000e+03 0.000000000000000000e+00
1.393000000000000000e+03 0.000000000000000000e+00
1.394000000000000000e+03 0.000000000000000000e+00
1.395000000000000000e+03 0.000000000000000000e+00
1.396000000000000000e+03 0.000000000000000000e+00
1.397000000000000000e+03 0.000000000000000000e+00
1.398000000000000000e+03 0.000000000000000000e+00
1.399000000000000000e+03 0.000000000000000000e+00
1.400000000000000000e+03 0.000000000000000000e+00
1.401000000000000000e+03 0.000000000000000000e+00
1.402000000000000000e+03 0.000000000000000000e+00
1.403000000000000000e+03 0.000000000000000000e+00
1.404000000000000000e+03 0.000000000000000000e+00
1.405000000000000000e+03 0.000000000000000000e+00
1.406000000000000000e+03 0.000000000000000000e+00
1.407000000000000000e+03 0.000000000000000000e+00
1.408000000000000000e+03 0.000000000000000000e+00
1.409000000000000000e+03 0.000000000000000000e+00
1.410000000000000000e+03 0.000000000000000000e+00
1.411000000000000000e+03 0.000000000000000000e+00
1.412000000000000000e+03 0.000000000000000000e+00
1.413000000000000000e+03 0.000000000000000000e+00
1.414000000000000000e+03 0.000000000000000000e+00
1.415000000000000000e+03 0.000000000000000000e+00
1.416000000000000000e+03 0.000000000000000000e+00
1.417000000000000000e+03 0.000000000000000000e+00
1.418000000000000000e+03 0.000000000000000000e+00
1.419000000000000000e+03 0.000000000000000000e+00
1.420000000000000000e+03 0.000000000000000000e+00
1.421000000000000000e+03 0.000000000000000000e+00
1.422000000000000000e+03 0.000000000000000000e+00
1.423000000000000000e+03 0.000000000000000000e+00
1.424000000000000000e+03 0.000000000000000000e+00
1.425000000000000000e+03 0.000000000000000000e+00
1.426000000000000000e+03 0.000000000000000000e+00
1.427000000000000000e+03 0.000000000000000000e+00
1.428000000000000000e+03 0.000000000000000000e+00
1.429000000000000000e+03 0.000000000000000000e+00
1.430000000000000000e+03 0.000000000000000000e+00
1.431000000000000000e+03 0.000000000000000000e+00
1.432000000000000000e+03 0.000000000000000000e+00
1.433000000000000000e+03 0.000000000000000000e+00
1.434000000000000000e+03 0.000000000000000000e+00
1.435000000000000000e+03 0.000000000000000000e+00
1.436000000000000000e+03 0.000000000000000000e+00
1.437000000000000000e+03 0.000000000000000000e+00
1.438000000000000000e+03 0.000000000000000000e+00
1.439000000000000000e+03 0.000000000000000000e+00
1.440000000000000000e+03 0.000000000000000000e+00
1.441000000000000000e+03 0.000000000000000000e+00
1.442000000000000000e+03 0.000000000000000000e+00
1.443000000000000000e+03 0.000000000000000000e+00
1.444000000000000000e+03 0.000000000000000000e+00
1.445000000000000000e+03 0.000000000000000000e+00
1.446000000000000000e+03 0.000000000000000000e+00
1.447000000000000000e+03 0.000000000000000000e+00
1.448000000000000000e+03 0.000000000000000000e+00
1.449000000000000000e+03 0.000000000000000000e+00
1.450000000000000000e+03 0.000000000000000000e+00
1.451000000000000000e+03 0.000000000000000000e+00
1.452000000000000000e+03 0.000000000000000000e+00
1.453000000000000000e+03 0.000000000000000000e+00
1.454000000000000000e+03 0.000000000000000000e+00
1.455000000000000000e+03 0.000000000000000000e+00
1.456000000000000000e+03 0.000000000000000000e+00
1.457000000000000000e+03 0.000000000000000000e+00
1.458000000000000000e+03 0.000000000000000000e+00
1.459000000000000000e+03 0.000000000000000000e+00
1.460000000000000000e+03 0.000000000000000000e+00
1.461000000000000000e+03 0.000000000000000000e+00
1.462000000000000000e+03 0.000000000000000000e+00
1.463000000000000000e+03 0.000000000000000000e+00
1.464000000000000000e+03 0.000000000000000000e+00
1.465000000000000000e+03 0.000000000000000000e+00
1.466000000000000000e+03 0.000000000000000000e+00
1.467000000000000000e+03 0.000000000000000000e+00
1.468000000000000000e+03 0.000000000000000000e+00
1.469000000000000000e+03 0.000000000000000000e+00
1.470000000000000000e+03 0.000000000000000000e+00
1.471000000000000000e+03 0.000000000000000000e+00
1.472000000000000000e+03 0.000000000000000000e+00
1.473000000000000000e+03 0.000000000000000000e+00
1.474000000000000000e+03 0.000000000000000000e+00
1.475000000000000000e+03 0.000000000000000000e+00
1.476000000000000000e+03 0.000000000000000000e+00
1.477000000000000000e+03 0.000000000000000000e+00
1.478000000000000000e+03 0.000000000000000000e+00
1.479000000000000000e+03 0.000000000000000000e+00
1.480000000000000000e+03 0.000000000000000000e+00
1.481000000000000000e+03 0.000000000000000000e+00
1.482000000000000000e+03 0.000000000000000000e+00
1.483000000000000000e+03 0.000000000000000000e+00
1.484000000000000000e+03 0.000000000000000000e+00
1.485000000000000000e+03 0.000000000000000000e+00
1.486000000000000000e+03 0.000000000000000000e+00
1.487000000000000000e+03 0.000000000000000000e+00
1.488000000000000000e+03 0.000000000000000000e+00
1.489000000000000000e+03 0.000000000000000000e+00
1.490000000000000000e+03 0.000000000000000000e+00
1.491000000000000000e+03 0.000000000000000000e+00
1.492000000000000000e+03 0.000000000000000000e+00
1.493000000000000000e+03 0.000000000000000000e+00
1.494000000000000000e+03 0.000000000000000000e+00
1.495000000000000000e+03 0.000000000000000000e+00
1.496000000000000000e+03 0.000000000000000000e+00
1.497000000000000000e+03 0.000000000000000000e+00
1.498000000000000000e+03 0.000000000000000000e+00
1.499000000000000000e+03 0.000000000000000000e+00
1.500000000000000000e+03 0.000000000000000000e+00
