1.010000000000000000e+02 0.000000000000000000e+00
1.020000000000000000e+02 0.000000000000000000e+00
1.030000000000000000e+02 0.000000000000000000e+00
1.040000000000000000e+02 0.000000000000000000e+00
1.050000000000000000e+02 0.000000000000000000e+00
1.060000000000000000e+02 0.000000000000000000e+00
1.070000000000000000e+02 0.000000000000000000e+00
1.080000000000000000e+02 0.000000000000000000e+00
1.090000000000000000e+02 0.000000000000000000e+00
1.100000000000000000e+02 0.000000000000000000e+00
1.110000000000000000e+02 0.000000000000000000e+00
1.120000000000000000e+02 0.000000000000000000e+00
1.130000000000000000e+02 0.000000000000000000e+00
1.140000000000000000e+02 0.000000000000000000e+00
1.150000000000000000e+02 0.000000000000000000e+00
1.160000000000000000e+02 0.000000000000000000e+00
1.170000000000000000e+02 0.000000000000000000e+00
1.180000000000000000e+02 0.000000000000000000e+00
1.190000000000000000e+02 0.000000000000000000e+00
1.200000000000000000e+02 0.000000000000000000e+00
1.210000000000000000e+02 0.000000000000000000e+00
1.220000000000000000e+02 0.000000000000000000e+00
1.230000000000000000e+02 0.000000000000000000e+00
1.240000000000000000e+02 0.000000000000000000e+00
1.250000000000000000e+02 0.000000000000000000e+00
1.260000000000000000e+02 0.000000000000000000e+00
1.270000000000000000e+02 0.000000000000000000e+00
1.280000000000000000e+02 0.000000000000000000e+00
1.290000000000000000e+02 0.000000000000000000e+00
1.300000000000000000e+02 0.000000000000000000e+00
1.310000000000000000e+02 0.000000000000000000e+00
1.320000000000000000e+02 0.000000000000000000e+00
1.330000000000000000e+02 0.000000000000000000e+00
1.340000000000000000e+02 0.000000000000000000e+00
1.350000000000000000e+02 0.000000000000000000e+00
1.360000000000000000e+02 0.000000000000000000e+00
1.370000000000000000e+02 0.000000000000000000e+00
1.380000000000000000e+02 0.000000000000000000e+00
1.390000000000000000e+02 0.000000000000000000e+00
1.400000000000000000e+02 0.000000000000000000e+00
1.410000000000000000e+02 0.000000000000000000e+00
1.420000000000000000e+02 0.000000000000000000e+00
1.430000000000000000e+02 0.000000000000000000e+00
1.440000000000000000e+02 0.000000000000000000e+00
1.450000000000000000e+02 0.000000000000000000e+00
1.460000000000000000e+02 0.000000000000000000e+00
1.470000000000000000e+02 0.000000000000000000e+00
1.480000000000000000e+02 0.000000000000000000e+00
1.490000000000000000e+02 0.000000000000000000e+00
1.500000000000000000e+02 0.000000000000000000e+00
1.510000000000000000e+02 0.000000000000000000e+00
1.520000000000000000e+02 0.000000000000000000e+00
1.530000000000000000e+02 0.000000000000000000e+00
1.540000000000000000e+02 0.000000000000000000e+00
1.550000000000000000e+02 0.000000000000000000e+00
1.560000000000000000e+02 0.000000000000000000e+00
1.570000000000000000e+02 0.000000000000000000e+00
1.580000000000000000e+02 0.000000000000000000e+00
1.590000000000000000e+02 0.000000000000000000e+00
1.600000000000000000e+02 0.000000000000000000e+00
1.610000000000000000e+02 0.000000000000000000e+00
1.620000000000000000e+02 0.000000000000000000e+00
1.630000000000000000e+02 0.000000000000000000e+00
1.640000000000000000e+02 2.340887207382814239e+01
1.650000000000000000e+02 6.097192032980741416e+00
1.660000000000000000e+02 2.819693554656749512e+01
1.670000000000000000e+02 6.654154214433842185e+01
1.680000000000000000e+02 1.048976161107650427e+02
1.690000000000000000e+02 1.757752331673921447e+02
1.700000000000000000e+02 2.173904562538896243e+02
1.710000000000000000e+02 2.922737315494712220e+02
1.720000000000000000e+02 3.799154451773488290e+02
1.730000000000000000e+02 4.376829849616256070e+02
1.740000000000000000e+02 4.860466144368394907e+02
1.750000000000000000e+02 5.694369582659205662e+02
1.760000000000000000e+02 6.748352210537228757e+02
1.770000000000000000e+02 7.838514435594264569e+02
1.780000000000000000e+02 9.011494843808344513e+02
1.790000000000000000e+02 9.596815582745750817e+02
1.800000000000000000e+02 1.050348345695913622e+03
1.810000000000000000e+02 1.184130199336236501e+03
1.820000000000000000e+02 1.287796107216923929e+03
1.830000000000000000e+02 1.402637353453641481e+03
1.840000000000000000e+02 1.538576643434972539e+03
1.850000000000000000e+02 1.675076134204521168e+03
1.860000000000000000e+02 1.803322719145403880e+03
1.870000000000000000e+02 1.948976703857322036e+03
1.880000000000000000e+02 2.074940867454884938e+03
1.890000000000000000e+02 2.141651080273801654e+03
1.900000000000000000e+02 2.147494067399419691e+03
1.910000000000000000e+02 2.095799465463595880e+03
1.920000000000000000e+02 1.989374054138144857e+03
1.930000000000000000e+02 1.811262590626296515e+03
1.940000000000000000e+02 1.571866946898985589e+03
1.950000000000000000e+02 1.317995982368806381e+03
1.960000000000000000e+02 1.153013087100786606e+03
1.970000000000000000e+02 9.661347965774734803e+02
1.980000000000000000e+02 7.755971113047091876e+02
1.990000000000000000e+02 6.694036851928664191e+02
2.000000000000000000e+02 5.693681790085036027e+02
2.010000000000000000e+02 4.902744819539512378e+02
2.020000000000000000e+02 4.085171650352554593e+02
2.030000000000000000e+02 3.029911292677878123e+02
2.040000000000000000e+02 2.183990686164686963e+02
2.050000000000000000e+02 1.616942767731229651e+02
2.060000000000000000e+02 1.041890527069074039e+02
2.070000000000000000e+02 3.910088013482727121e+01
2.080000000000000000e+02 1.543935147573647804e+01
2.090000000000000000e+02 1.288235948309471368e+01
2.100000000000000000e+02 4.006009207218418133e+00
2.110000000000000000e+02 8.730070013272401397e+00
2.120000000000000000e+02 2.346049790085044506e+01
2.130000000000000000e+02 1.389962337502567991e+01
2.140000000000000000e+02 2.230368988593960466e+01
2.150000000000000000e+02 8.394444283136246554e+01
2.160000000000000000e+02 1.771759038581195398e+02
2.170000000000000000e+02 3.159106512235586592e+02
2.180000000000000000e+02 3.709398939224228116e+02
2.190000000000000000e+02 3.854081726197884450e+02
2.200000000000000000e+02 4.187424201368721697e+02
2.210000000000000000e+02 5.014354075088161835e+02
2.220000000000000000e+02 4.987638375855629533e+02
2.230000000000000000e+02 3.565825248288739431e+02
2.240000000000000000e+02 1.843264549471072087e+02
2.250000000000000000e+02 8.279648657539978274e+01
2.260000000000000000e+02 3.118215765193935951e+01
2.270000000000000000e+02 6.287912415266551847e+01
2.280000000000000000e+02 7.000644329184839876e+01
2.290000000000000000e+02 2.949997224595612622e+01
2.300000000000000000e+02 3.686999878863313285e+01
2.310000000000000000e+02 3.141504986932165977e+01
2.320000000000000000e+02 3.009349481542925275e+01
2.330000000000000000e+02 1.083901775046701665e+01
2.340000000000000000e+02 8.131239366728955531e+01
2.350000000000000000e+02 9.013943720240561674e+01
2.360000000000000000e+02 8.663681191661481762e+01
2.370000000000000000e+02 6.445749184816455113e+01
2.380000000000000000e+02 3.202488261356575094e+01
2.390000000000000000e+02 4.008590442439322743e+01
2.400000000000000000e+02 1.621922312051432868e+01
2.410000000000000000e+02 7.802057371914458805e+00
2.420000000000000000e+02 2.025455100186675494e+01
2.430000000000000000e+02 4.074009921178228666e+01
2.440000000000000000e+02 1.193234090416927984e+02
2.450000000000000000e+02 1.457310427297241517e+02
2.460000000000000000e+02 1.516204453640322072e+02
2.470000000000000000e+02 1.725026764827873365e+02
2.480000000000000000e+02 1.743443588052271593e+02
2.490000000000000000e+02 1.902996487035884741e+02
2.500000000000000000e+02 2.575082485583895391e+02
2.510000000000000000e+02 3.464107872433099260e+02
2.520000000000000000e+02 3.985794790085047907e+02
2.530000000000000000e+02 4.332460164696121296e+02
2.540000000000000000e+02 5.249629246629323234e+02
2.550000000000000000e+02 6.364875093341620413e+02
2.560000000000000000e+02 7.213262448039822630e+02
2.570000000000000000e+02 7.873991367143732987e+02
2.580000000000000000e+02 8.250564744243940822e+02
2.590000000000000000e+02 8.744897507673164228e+02
2.600000000000000000e+02 9.030303147479776271e+02
2.610000000000000000e+02 8.373270638456772303e+02
2.620000000000000000e+02 6.735115676068028279e+02
2.630000000000000000e+02 5.699649320887788235e+02
2.640000000000000000e+02 4.934418281269459499e+02
2.650000000000000000e+02 3.914029370255126992e+02
2.660000000000000000e+02 2.973520957892552588e+02
2.670000000000000000e+02 2.583834001037129724e+02
2.680000000000000000e+02 2.351368755652349591e+02
2.690000000000000000e+02 2.083652282513998841e+02
2.700000000000000000e+02 1.974463762497407515e+02
2.710000000000000000e+02 2.365121776394952064e+02
2.720000000000000000e+02 2.982536354698207788e+02
2.730000000000000000e+02 3.806292536403248619e+02
2.740000000000000000e+02 4.749516028624746014e+02
2.750000000000000000e+02 5.461961818917251321e+02
2.760000000000000000e+02 6.022143439535377638e+02
2.770000000000000000e+02 6.779219298693202518e+02
2.780000000000000000e+02 7.542751151213433332e+02
2.790000000000000000e+02 8.040819402737433848e+02
2.800000000000000000e+02 9.160322370255126998e+02
2.810000000000000000e+02 9.939820751296405206e+02
2.820000000000000000e+02 1.058908281625880818e+03
2.830000000000000000e+02 1.131159634100809171e+03
2.840000000000000000e+02 1.176340514208670356e+03
2.850000000000000000e+02 1.209608892345986078e+03
2.860000000000000000e+02 1.182516038373780702e+03
2.870000000000000000e+02 1.126675601742376784e+03
2.880000000000000000e+02 1.078888876996473755e+03
2.890000000000000000e+02 9.432661093134177008e+02
2.900000000000000000e+02 8.881232131922837425e+02
2.910000000000000000e+02 8.960109559104107575e+02
2.920000000000000000e+02 8.948128115121354540e+02
2.930000000000000000e+02 8.529969574154742986e+02
2.940000000000000000e+02 9.057231692243889256e+02
2.950000000000000000e+02 1.024302267994189151e+03
2.960000000000000000e+02 1.146562217174857551e+03
2.970000000000000000e+02 1.259575949813356829e+03
2.980000000000000000e+02 1.449504318398670193e+03
2.990000000000000000e+02 1.664924646961207600e+03
3.000000000000000000e+02 1.919887698880131666e+03
3.010000000000000000e+02 2.185565601120099018e+03
3.020000000000000000e+02 2.431758399709601690e+03
3.030000000000000000e+02 2.810919043135632819e+03
3.040000000000000000e+02 3.235207920141052000e+03
3.050000000000000000e+02 3.654656873055383130e+03
3.060000000000000000e+02 4.062480500311147807e+03
3.070000000000000000e+02 4.497205801908323338e+03
3.080000000000000000e+02 4.898196770379592635e+03
3.090000000000000000e+02 5.234026679319642426e+03
3.100000000000000000e+02 5.429977344119479312e+03
3.110000000000000000e+02 5.424112854387054540e+03
3.120000000000000000e+02 5.229739863513799719e+03
3.130000000000000000e+02 4.801180084422332584e+03
3.140000000000000000e+02 4.179987673304282907e+03
3.150000000000000000e+02 3.480751366521475575e+03
3.160000000000000000e+02 2.848372256793205906e+03
3.170000000000000000e+02 2.370019758606395499e+03
3.180000000000000000e+02 2.021887508087937476e+03
3.190000000000000000e+02 1.739197635345366052e+03
3.200000000000000000e+02 1.510926920141051141e+03
3.210000000000000000e+02 1.411926359187060370e+03
3.220000000000000000e+02 1.303886592615639756e+03
3.230000000000000000e+02 1.265169843808338555e+03
3.240000000000000000e+02 1.241702638324346481e+03
3.250000000000000000e+02 1.166071956855423878e+03
3.260000000000000000e+02 1.180110666666666930e+03
3.270000000000000000e+02 1.271583576939031445e+03
3.280000000000000000e+02 1.345227851897947176e+03
3.290000000000000000e+02 1.407488913295997918e+03
3.300000000000000000e+02 1.549805177104932454e+03
3.310000000000000000e+02 1.660739998962873869e+03
3.320000000000000000e+02 1.772923619788428368e+03
3.330000000000000000e+02 1.927064104542622545e+03
3.340000000000000000e+02 2.114043862684087799e+03
3.350000000000000000e+02 2.235375688031524533e+03
3.360000000000000000e+02 2.441635499066582270e+03
3.370000000000000000e+02 2.613475662103296600e+03
3.380000000000000000e+02 2.737325391619993752e+03
3.390000000000000000e+02 2.891782804190002480e+03
3.400000000000000000e+02 3.126921713544907107e+03
3.410000000000000000e+02 3.337597619788423799e+03
3.420000000000000000e+02 3.500982694461731626e+03
3.430000000000000000e+02 3.636860384152666029e+03
3.440000000000000000e+02 3.753076307548734803e+03
3.450000000000000000e+02 3.721049934246004341e+03
3.460000000000000000e+02 3.529060816428122962e+03
3.470000000000000000e+02 3.203792404811281358e+03
3.480000000000000000e+02 2.783412868284593060e+03
3.490000000000000000e+02 2.319229489110132818e+03
3.500000000000000000e+02 1.898329516798008171e+03
3.510000000000000000e+02 1.488887477395273663e+03
3.520000000000000000e+02 1.187460727649870023e+03
3.530000000000000000e+02 1.009815799460687458e+03
3.540000000000000000e+02 7.763582547490676689e+02
3.550000000000000000e+02 5.898585739888018225e+02
3.560000000000000000e+02 4.635206356565051351e+02
3.570000000000000000e+02 3.585376378473665682e+02
3.580000000000000000e+02 2.523000998755450155e+02
3.590000000000000000e+02 1.990319373988804443e+02
3.600000000000000000e+02 1.635632390790289890e+02
3.610000000000000000e+02 8.505001784691965838e+01
3.620000000000000000e+02 1.507103127774310281e+01
3.630000000000000000e+02 3.487142161584731070e+01
3.640000000000000000e+02 1.042313345301780458e+01
3.650000000000000000e+02 1.153932866168850424e+01
3.660000000000000000e+02 8.916764021571717436e+00
3.670000000000000000e+02 1.048327435532068996e+01
3.680000000000000000e+02 1.802197803982592816e+01
3.690000000000000000e+02 5.948032545115015068e+01
3.700000000000000000e+02 5.673796682430960203e+01
3.710000000000000000e+02 4.285868552053103286e+01
3.720000000000000000e+02 4.128643602572132920e+01
3.730000000000000000e+02 1.394151187927817581e+01
3.740000000000000000e+02 3.463313419742810595e+01
3.750000000000000000e+02 2.427140109935724510e+01
3.760000000000000000e+02 3.325278505704112320e+01
3.770000000000000000e+02 9.837645010369116960e+01
3.780000000000000000e+02 1.034181630989421024e+02
3.790000000000000000e+02 6.422862355527919931e+01
3.800000000000000000e+02 3.090521299460788640e+01
3.810000000000000000e+02 6.891081095623070141e+00
3.820000000000000000e+02 3.727675332918492046e+01
3.830000000000000000e+02 3.363664305682279831e+01
3.840000000000000000e+02 8.632043814146575755e+01
3.850000000000000000e+02 1.227748616262186374e+02
3.860000000000000000e+02 1.183856398879899388e+02
3.870000000000000000e+02 1.197727248911029676e+02
3.880000000000000000e+02 1.890061679941935040e+02
3.890000000000000000e+02 2.322996134619379234e+02
3.900000000000000000e+02 2.979552868699419150e+02
3.910000000000000000e+02 3.966151656502775040e+02
3.920000000000000000e+02 4.851007836755879907e+02
3.930000000000000000e+02 5.587980067205965042e+02
3.940000000000000000e+02 6.483259857498428573e+02
3.950000000000000000e+02 7.074086764779084433e+02
3.960000000000000000e+02 7.318461429371499207e+02
3.970000000000000000e+02 7.621403120514413558e+02
3.980000000000000000e+02 7.933352761509748916e+02
3.990000000000000000e+02 7.334839586807712521e+02
4.000000000000000000e+02 7.015330727442438956e+02
4.010000000000000000e+02 7.241210727084196606e+02
4.020000000000000000e+02 7.070449426674971392e+02
4.030000000000000000e+02 8.354274037336665515e+02
4.040000000000000000e+02 9.532450864993791129e+02
4.050000000000000000e+02 1.057234709396393555e+03
4.060000000000000000e+02 1.194758924289568995e+03
4.070000000000000000e+02 1.353592887598505513e+03
4.080000000000000000e+02 1.469563830118230044e+03
4.090000000000000000e+02 1.605265843186064785e+03
4.100000000000000000e+02 1.702715662725574930e+03
4.110000000000000000e+02 1.711700212404065724e+03
4.120000000000000000e+02 1.693193037536290831e+03
4.130000000000000000e+02 1.770485816013274871e+03
4.140000000000000000e+02 1.800816949595519873e+03
4.150000000000000000e+02 1.789985018664454628e+03
4.160000000000000000e+02 1.802139806886538281e+03
4.170000000000000000e+02 1.851788187720389942e+03
4.180000000000000000e+02 1.893036220286247499e+03
4.190000000000000000e+02 1.917814439236831277e+03
4.200000000000000000e+02 1.872175807923666298e+03
4.210000000000000000e+02 1.769460041900020542e+03
4.220000000000000000e+02 1.724069522604727126e+03
4.230000000000000000e+02 1.598990939016799075e+03
4.240000000000000000e+02 1.520817431860609076e+03
4.250000000000000000e+02 1.530421339556106659e+03
4.260000000000000000e+02 1.565451797137519634e+03
4.270000000000000000e+02 1.445748609831985050e+03
4.280000000000000000e+02 1.554783477909145631e+03
4.290000000000000000e+02 1.568600021364864006e+03
4.300000000000000000e+02 1.562974269861024140e+03
4.310000000000000000e+02 1.690966041485168034e+03
4.320000000000000000e+02 1.798455114499065758e+03
4.330000000000000000e+02 1.806406321302634751e+03
4.340000000000000000e+02 1.776343537855216709e+03
4.350000000000000000e+02 1.712090359261564345e+03
4.360000000000000000e+02 1.643619488487865738e+03
4.370000000000000000e+02 1.649754001866832596e+03
4.380000000000000000e+02 1.521562023024268001e+03
4.390000000000000000e+02 1.381134424720033167e+03
4.400000000000000000e+02 1.248919259074878028e+03
4.410000000000000000e+02 1.117768263845674028e+03
4.420000000000000000e+02 1.035055063873911195e+03
4.430000000000000000e+02 9.381853441402167846e+02
4.440000000000000000e+02 7.976831453225437372e+02
4.450000000000000000e+02 6.506996688510990907e+02
4.460000000000000000e+02 5.598343780958313118e+02
4.470000000000000000e+02 5.686104473345779979e+02
4.480000000000000000e+02 5.017162080879301698e+02
4.490000000000000000e+02 4.339687611698824981e+02
4.500000000000000000e+02 4.326904202240193058e+02
4.510000000000000000e+02 4.735861124870353933e+02
4.520000000000000000e+02 4.469641746733043419e+02
4.530000000000000000e+02 4.517352793818710666e+02
4.540000000000000000e+02 4.300854102053519341e+02
4.550000000000000000e+02 4.594947314872439392e+02
4.560000000000000000e+02 5.021071926156399741e+02
4.570000000000000000e+02 3.567592472101234762e+02
4.580000000000000000e+02 1.465849667288915725e+02
4.590000000000000000e+02 3.230736718108330052e+01
4.600000000000000000e+02 1.146829538747150110e+02
4.610000000000000000e+02 1.150489916199941263e+02
4.620000000000000000e+02 1.512494162808404852e+01
4.630000000000000000e+02 4.675970531425063825e+01
4.640000000000000000e+02 1.881901016179303099e+01
4.650000000000000000e+02 1.450892306368009486e+02
4.660000000000000000e+02 2.871346505391975370e+02
4.670000000000000000e+02 4.166062345778858003e+02
4.680000000000000000e+02 5.808536536403199761e+02
4.690000000000000000e+02 7.338688026544971308e+02
4.700000000000000000e+02 9.011267483717056166e+02
4.710000000000000000e+02 1.109843606098316741e+03
4.720000000000000000e+02 1.351850794483615346e+03
4.730000000000000000e+02 1.577061492843808537e+03
4.740000000000000000e+02 1.853939055175273552e+03
4.750000000000000000e+02 2.205723934881795230e+03
4.760000000000000000e+02 2.559710440572498101e+03
4.770000000000000000e+02 2.872695872433106160e+03
4.780000000000000000e+02 3.259422925964339356e+03
4.790000000000000000e+02 3.638471571873062658e+03
4.800000000000000000e+02 4.073970121966402985e+03
4.810000000000000000e+02 4.617789518149746073e+03
4.820000000000000000e+02 5.243337632233991826e+03
4.830000000000000000e+02 5.841317456959151059e+03
4.840000000000000000e+02 6.578914931964334755e+03
4.850000000000000000e+02 7.396762099771814064e+03
4.860000000000000000e+02 8.112982584940868037e+03
4.870000000000000000e+02 8.701829189794663762e+03
4.880000000000000000e+02 9.372013066168836303e+03
4.890000000000000000e+02 9.902564046048530145e+03
4.900000000000000000e+02 1.020966980087118282e+04
4.910000000000000000e+02 1.019900703795893060e+04
4.920000000000000000e+02 9.777591053101023135e+03
4.930000000000000000e+02 8.868330390294497192e+03
4.940000000000000000e+02 7.651646341837787077e+03
4.950000000000000000e+02 6.337405634100809948e+03
4.960000000000000000e+02 5.111353086686021015e+03
4.970000000000000000e+02 4.105399467745270158e+03
4.980000000000000000e+02 3.334468851690514839e+03
4.990000000000000000e+02 2.628086838241383703e+03
5.000000000000000000e+02 2.070234598008701141e+03
5.010000000000000000e+02 1.682728629744861109e+03
5.020000000000000000e+02 1.385432351306515557e+03
5.030000000000000000e+02 1.116657512756695496e+03
5.040000000000000000e+02 9.562009602986895516e+02
5.050000000000000000e+02 8.115445444214034296e+02
5.060000000000000000e+02 7.384176140427305199e+02
5.070000000000000000e+02 6.595361923667325073e+02
5.080000000000000000e+02 5.455103956025722027e+02
5.090000000000000000e+02 5.554557066583696496e+02
5.100000000000000000e+02 5.393897693009753311e+02
5.110000000000000000e+02 5.075140614395352259e+02
5.120000000000000000e+02 5.321689814768719771e+02
5.130000000000000000e+02 6.004758863721228863e+02
5.140000000000000000e+02 6.300070719352829656e+02
5.150000000000000000e+02 6.479631983198504486e+02
5.160000000000000000e+02 7.079578650487443383e+02
5.170000000000000000e+02 8.371910993569822494e+02
5.180000000000000000e+02 9.618501241443694880e+02
5.190000000000000000e+02 1.022748873885087050e+03
5.200000000000000000e+02 1.191867072806474653e+03
5.210000000000000000e+02 1.258534364862063285e+03
5.220000000000000000e+02 1.375363850684365616e+03
5.230000000000000000e+02 1.530151341630370098e+03
5.240000000000000000e+02 1.644987161169883166e+03
5.250000000000000000e+02 1.737811868519287827e+03
5.260000000000000000e+02 1.816575878033604113e+03
5.270000000000000000e+02 1.858922163036714437e+03
5.280000000000000000e+02 1.807754213189546135e+03
5.290000000000000000e+02 1.658548328147689745e+03
5.300000000000000000e+02 1.470294004355941752e+03
5.310000000000000000e+02 1.285844613773074570e+03
5.320000000000000000e+02 1.097404910373447137e+03
5.330000000000000000e+02 9.669216518564611533e+02
5.340000000000000000e+02 8.629311789255334588e+02
5.350000000000000000e+02 7.182187754873517633e+02
5.360000000000000000e+02 5.624190848164284944e+02
5.370000000000000000e+02 4.406218386226937582e+02
5.380000000000000000e+02 3.124212635835768310e+02
5.390000000000000000e+02 2.067697222360510239e+02
5.400000000000000000e+02 1.445150426882399870e+02
5.410000000000000000e+02 7.905104920365050702e+01
5.420000000000000000e+02 2.892486500518613113e+01
5.430000000000000000e+02 4.084286475212461198e+01
5.440000000000000000e+02 6.288334370385749139e+01
5.450000000000000000e+02 4.836738012445549373e+01
5.460000000000000000e+02 7.069580519186838785e+01
5.470000000000000000e+02 8.408785832192489806e+01
5.480000000000000000e+02 3.307321940883637268e+01
5.490000000000000000e+02 6.413043556316098659e+01
5.500000000000000000e+02 8.963831667703907158e+01
5.510000000000000000e+02 1.487720412901827061e+01
5.520000000000000000e+02 2.529676249533325105e+01
5.530000000000000000e+02 3.481642761667667685e+01
5.540000000000000000e+02 1.182166415059082993e+02
5.550000000000000000e+02 2.069494039203464126e+02
5.560000000000000000e+02 2.509616555901258153e+02
5.570000000000000000e+02 3.106347783239965565e+02
5.580000000000000000e+02 4.636864899813251668e+02
5.590000000000000000e+02 5.843421187305511921e+02
5.600000000000000000e+02 7.108228182534702455e+02
5.610000000000000000e+02 8.546243781833226194e+02
5.620000000000000000e+02 1.010221986932170353e+03
5.630000000000000000e+02 1.214427118855007848e+03
5.640000000000000000e+02 1.379715481128162537e+03
5.650000000000000000e+02 1.535193337689278223e+03
5.660000000000000000e+02 1.652538265505083018e+03
5.670000000000000000e+02 1.765165798423884326e+03
5.680000000000000000e+02 1.924875764156818150e+03
5.690000000000000000e+02 1.972098857498444886e+03
5.700000000000000000e+02 1.982938817710493367e+03
5.710000000000000000e+02 2.042317078199539765e+03
5.720000000000000000e+02 1.989576031113884937e+03
5.730000000000000000e+02 1.764168823273182852e+03
5.740000000000000000e+02 1.661054452188349387e+03
5.750000000000000000e+02 1.435593304293724032e+03
5.760000000000000000e+02 1.169087009126740213e+03
5.770000000000000000e+02 9.837615250777857909e+02
5.780000000000000000e+02 8.616823637212223730e+02
5.790000000000000000e+02 7.019445353868483153e+02
5.800000000000000000e+02 6.627476272142707785e+02
5.810000000000000000e+02 6.613235122588674813e+02
5.820000000000000000e+02 6.433943352831354332e+02
5.830000000000000000e+02 6.647490797137542131e+02
5.840000000000000000e+02 7.624560326073458327e+02
5.850000000000000000e+02 8.859277812279542559e+02
5.860000000000000000e+02 1.067228370130687608e+03
5.870000000000000000e+02 1.203897602447122381e+03
5.880000000000000000e+02 1.303698204729305417e+03
5.890000000000000000e+02 1.421263617091882679e+03
5.900000000000000000e+02 1.593050500207391451e+03
5.910000000000000000e+02 1.776056024268820693e+03
5.920000000000000000e+02 1.920391732835508265e+03
5.930000000000000000e+02 2.106967234549977093e+03
5.940000000000000000e+02 2.282110588052271851e+03
5.950000000000000000e+02 2.379712605476042427e+03
5.960000000000000000e+02 2.395926555371214363e+03
5.970000000000000000e+02 2.239371105994601749e+03
5.980000000000000000e+02 1.872061493571124402e+03
5.990000000000000000e+02 1.443677467952697725e+03
6.000000000000000000e+02 1.067496257000616424e+03
6.010000000000000000e+02 7.775521747562668224e+02
6.020000000000000000e+02 5.583155581829444145e+02
6.030000000000000000e+02 3.458765573117585177e+02
6.040000000000000000e+02 2.091808362165498067e+02
6.050000000000000000e+02 1.297828240199116294e+02
6.060000000000000000e+02 8.534877840282072725e+01
6.070000000000000000e+02 5.488311229827965576e+01
6.080000000000000000e+02 7.275858135033638874e+00
6.090000000000000000e+02 1.355840727913680155e+00
6.100000000000000000e+02 2.015966882804372862e+00
6.110000000000000000e+02 2.614030155569365910e+00
6.120000000000000000e+02 3.117114480298734236e+01
6.130000000000000000e+02 9.208269211574450708e+01
6.140000000000000000e+02 1.454306597386435840e+02
6.150000000000000000e+02 1.450041936112845065e+02
6.160000000000000000e+02 2.067496954366330044e+02
6.170000000000000000e+02 2.956667352831365179e+02
6.180000000000000000e+02 3.416935978220294601e+02
6.190000000000000000e+02 3.774274411740304913e+02
6.200000000000000000e+02 3.927773065753993365e+02
6.210000000000000000e+02 4.422299633271115340e+02
6.220000000000000000e+02 4.673128009334162698e+02
6.230000000000000000e+02 4.968414636797342609e+02
6.240000000000000000e+02 5.492102888404892838e+02
6.250000000000000000e+02 4.906262007259903157e+02
6.260000000000000000e+02 4.493914650280027558e+02
6.270000000000000000e+02 3.815207690728057628e+02
6.280000000000000000e+02 2.948572108483718353e+02
6.290000000000000000e+02 2.196286944006640169e+02
6.300000000000000000e+02 1.580087756274627395e+02
6.310000000000000000e+02 6.196993166770405281e+01
6.320000000000000000e+02 5.818194921816662202e+01
6.330000000000000000e+02 7.507769285003111293e+01
6.340000000000000000e+02 3.199680162621952917e+01
6.350000000000000000e+02 5.992155284529233228e+01
6.360000000000000000e+02 4.687099838830126686e+01
6.370000000000000000e+02 2.364904593030514945e+01
6.380000000000000000e+02 2.481498734964742425e+01
6.390000000000000000e+02 4.774872491599231239e+01
6.400000000000000000e+02 4.169970851275718360e+01
6.410000000000000000e+02 1.034898981331766610e+00
6.420000000000000000e+02 2.197501662933004241e+01
6.430000000000000000e+02 2.790183529350755620e+01
6.440000000000000000e+02 6.912156472308616628e+00
6.450000000000000000e+02 8.105244947106147890e+01
6.460000000000000000e+02 1.784362537855213873e+02
6.470000000000000000e+02 1.875973672682011681e+02
6.480000000000000000e+02 2.321746940261353700e+02
6.490000000000000000e+02 2.066772840696960714e+02
6.500000000000000000e+02 2.009767928438081697e+02
6.510000000000000000e+02 2.186573670815178616e+02
6.520000000000000000e+02 2.220215325036304534e+02
6.530000000000000000e+02 2.206463111595101907e+02
6.540000000000000000e+02 2.738293073428724824e+02
6.550000000000000000e+02 3.551014155951883140e+02
6.560000000000000000e+02 2.944551442231904730e+02
6.570000000000000000e+02 2.746419747562744078e+02
6.580000000000000000e+02 3.201992071339693666e+02
6.590000000000000000e+02 3.415161425015554073e+02
6.600000000000000000e+02 3.170794551337893381e+02
6.610000000000000000e+02 3.160696154292816118e+02
6.620000000000000000e+02 3.979690851068208985e+02
6.630000000000000000e+02 4.962227119477319661e+02
6.640000000000000000e+02 6.128442206388771183e+02
6.650000000000000000e+02 7.516348099357022647e+02
6.660000000000000000e+02 8.298272370385694785e+02
6.670000000000000000e+02 9.359083377722403156e+02
6.680000000000000000e+02 1.064806748392456939e+03
6.690000000000000000e+02 1.214207994192070828e+03
6.700000000000000000e+02 1.388611897116774117e+03
6.710000000000000000e+02 1.576646364032352039e+03
6.720000000000000000e+02 1.742522169259488237e+03
6.730000000000000000e+02 1.865077438083383868e+03
6.740000000000000000e+02 1.930691746318190553e+03
6.750000000000000000e+02 2.037062075917860739e+03
6.760000000000000000e+02 2.108286505911636596e+03
6.770000000000000000e+02 2.059882947106409119e+03
6.780000000000000000e+02 1.981212689068654299e+03
6.790000000000000000e+02 1.785924297448655807e+03
6.800000000000000000e+02 1.635503070939635563e+03
6.810000000000000000e+02 1.470975823895448002e+03
6.820000000000000000e+02 1.309635698195390432e+03
6.830000000000000000e+02 1.181692409788463237e+03
6.840000000000000000e+02 1.011630295934459809e+03
6.850000000000000000e+02 8.712879570006183485e+02
6.860000000000000000e+02 8.099879571961826059e+02
6.870000000000000000e+02 7.502320413814575204e+02
6.880000000000000000e+02 6.804928420452200726e+02
6.890000000000000000e+02 6.470416828287017097e+02
6.900000000000000000e+02 6.583813680771623922e+02
6.910000000000000000e+02 6.056130319435801539e+02
6.920000000000000000e+02 6.035925874118626098e+02
6.930000000000000000e+02 5.515847308649636034e+02
6.940000000000000000e+02 5.134513744866210345e+02
6.950000000000000000e+02 5.123993368388256613e+02
6.960000000000000000e+02 4.184965824102871466e+02
6.970000000000000000e+02 3.886983761045417509e+02
6.980000000000000000e+02 3.326630406139777847e+02
6.990000000000000000e+02 2.445103841319202900e+02
7.000000000000000000e+02 1.919440788425637550e+02
7.010000000000000000e+02 2.166292784899381729e+02
7.020000000000000000e+02 2.421406671852326440e+02
7.030000000000000000e+02 1.284555470441802072e+02
7.040000000000000000e+02 8.549478156813943031e+01
7.050000000000000000e+02 5.799423591163673564e+01
7.060000000000000000e+02 4.275854851275671109e+01
7.070000000000000000e+02 5.987008431860661517e+01
7.080000000000000000e+02 9.823689749844450603e+01
7.090000000000000000e+02 1.090647899211946310e+02
7.100000000000000000e+02 1.264857787181088042e+02
7.110000000000000000e+02 1.596156597801289081e+02
7.120000000000000000e+02 1.641891469514722246e+02
7.130000000000000000e+02 1.607478739265718559e+02
7.140000000000000000e+02 1.870701099979257833e+02
7.150000000000000000e+02 1.901073174201577274e+02
7.160000000000000000e+02 2.161321220908528460e+02
7.170000000000000000e+02 2.205272886123210583e+02
7.180000000000000000e+02 2.090271062214847291e+02
7.190000000000000000e+02 2.508440693217165744e+02
7.200000000000000000e+02 3.113635241028832183e+02
7.210000000000000000e+02 2.450391844877635208e+02
7.220000000000000000e+02 2.638423337274423943e+02
7.230000000000000000e+02 2.158428799834060783e+02
7.240000000000000000e+02 2.393670479775987587e+02
7.250000000000000000e+02 2.849381264053100722e+02
7.260000000000000000e+02 2.663585985687620905e+02
7.270000000000000000e+02 2.074772975108894002e+02
7.280000000000000000e+02 1.435506621655259494e+02
7.290000000000000000e+02 1.562625784277117873e+02
7.300000000000000000e+02 1.067839497884276199e+02
7.310000000000000000e+02 7.905997085234292854e+01
7.320000000000000000e+02 9.609415953744034766e+01
7.330000000000000000e+02 7.420835941298567207e+01
7.340000000000000000e+02 3.148415241808424270e+01
7.350000000000000000e+02 2.485708703173605016e+01
7.360000000000000000e+02 3.119502465256175583e+01
7.370000000000000000e+02 1.361444983074036763e+01
7.380000000000000000e+02 1.582845940053936218e+01
7.390000000000000000e+02 1.543500224331043924e+01
7.400000000000000000e+02 2.120957909147438158e+01
7.410000000000000000e+02 2.635844904998927518e+01
7.420000000000000000e+02 1.032464083903840013e+01
7.430000000000000000e+02 1.719177400954103163e+01
7.440000000000000000e+02 3.078913177349140895e+01
7.450000000000000000e+02 1.348857607342919707e+01
7.460000000000000000e+02 4.952364336237594422e+00
7.470000000000000000e+02 9.366478290188432254e+00
7.480000000000000000e+02 6.651281391412465993e+00
7.490000000000000000e+02 7.218784162414351613e+01
7.500000000000000000e+02 6.100189489317752844e+01
7.510000000000000000e+02 2.542647147656492379e+01
7.520000000000000000e+02 5.651841055590124796e+01
7.530000000000000000e+02 7.315727380211549757e+01
7.540000000000000000e+02 1.543730622978021074e+02
7.550000000000000000e+02 1.376679862476655387e+02
7.560000000000000000e+02 1.563860462352221816e+02
7.570000000000000000e+02 2.000092147656572479e+02
7.580000000000000000e+02 2.132636927815818240e+02
7.590000000000000000e+02 2.464168967019296304e+02
7.600000000000000000e+02 2.255706436333478848e+02
7.610000000000000000e+02 2.750061899398432388e+02
7.620000000000000000e+02 2.968104119477280278e+02
7.630000000000000000e+02 3.259343429993764403e+02
7.640000000000000000e+02 3.546324349719976681e+02
7.650000000000000000e+02 3.521340786558807849e+02
7.660000000000000000e+02 3.695167296204101035e+02
7.670000000000000000e+02 4.664278372744240642e+02
7.680000000000000000e+02 4.179654993777234608e+02
7.690000000000000000e+02 3.834780591993364851e+02
7.700000000000000000e+02 4.259869842771216781e+02
7.710000000000000000e+02 4.947849881767276088e+02
7.720000000000000000e+02 5.440611899191047769e+02
7.730000000000000000e+02 5.211909558805220968e+02
7.740000000000000000e+02 5.517353542833448046e+02
7.750000000000000000e+02 4.999750884048900730e+02
7.760000000000000000e+02 5.036713303049191381e+02
7.770000000000000000e+02 5.529956344255501790e+02
7.780000000000000000e+02 5.595275634515662659e+02
7.790000000000000000e+02 5.355838461522533862e+02
7.800000000000000000e+02 4.515923253421786967e+02
7.810000000000000000e+02 4.117779200373367985e+02
7.820000000000000000e+02 4.253411590541376768e+02
7.830000000000000000e+02 4.281401602032352116e+02
7.840000000000000000e+02 3.968610082762909883e+02
7.850000000000000000e+02 3.568136127566892810e+02
7.860000000000000000e+02 3.120886585649096787e+02
7.870000000000000000e+02 2.483616456336843328e+02
7.880000000000000000e+02 2.405999567931966965e+02
7.890000000000000000e+02 2.733797613565654387e+02
7.900000000000000000e+02 2.360644530180416041e+02
7.910000000000000000e+02 1.651721964322765075e+02
7.920000000000000000e+02 1.904427768927618274e+02
7.930000000000000000e+02 1.457932235220888515e+02
7.940000000000000000e+02 8.651941779091357887e+01
7.950000000000000000e+02 5.637135127800883794e+01
7.960000000000000000e+02 3.383204796307809659e+01
7.970000000000000000e+02 3.804647256793279553e+01
7.980000000000000000e+02 5.923712326695701336e+01
7.990000000000000000e+02 3.462286978842563911e+01
8.000000000000000000e+02 2.833754265505082515e+01
8.010000000000000000e+02 3.498643609624556916e+01
8.020000000000000000e+02 2.329694496577648266e+00
8.030000000000000000e+02 1.214412552582426841e+01
8.040000000000000000e+02 3.151329963700514547e+00
8.050000000000000000e+02 2.634509865615918756e+01
8.060000000000000000e+02 3.882051293714969376e+01
8.070000000000000000e+02 1.992297843186049988e+01
8.080000000000000000e+02 4.192485935089175086e+01
8.090000000000000000e+02 1.337574627629113522e+01
8.100000000000000000e+02 4.157116024268799492e+01
8.110000000000000000e+02 7.727998099543761157e+01
8.120000000000000000e+02 8.142269986932173254e+01
8.130000000000000000e+02 2.046199544285447303e+01
8.140000000000000000e+02 7.269854985068448627e+01
8.150000000000000000e+02 2.523120372329411509e+01
8.160000000000000000e+02 9.538624878655486583e+00
8.170000000000000000e+02 1.958686447293087696e+01
8.180000000000000000e+02 4.589706347645790885e+00
8.190000000000000000e+02 2.229367696328601056e+01
8.200000000000000000e+02 3.513383625388934206e+01
8.210000000000000000e+02 3.766039378344682120e+01
8.220000000000000000e+02 3.528385890271812286e+01
8.230000000000000000e+02 9.452736202654929087e+00
8.240000000000000000e+02 1.577715948869493801e+01
8.250000000000000000e+02 3.003116391412655517e+01
8.260000000000000000e+02 7.442043444928257756e+00
8.270000000000000000e+02 1.029393814478275182e+01
8.280000000000000000e+02 4.022971999170208335e+01
8.290000000000000000e+02 5.720073136901039845e+01
8.300000000000000000e+02 4.729790183571871154e+01
8.310000000000000000e+02 1.010168420468669694e+02
8.320000000000000000e+02 1.439450163244133307e+02
8.330000000000000000e+02 6.943586211159522747e+01
8.340000000000000000e+02 1.216205220240542815e+02
8.350000000000000000e+02 1.980495120721837168e+02
8.360000000000000000e+02 1.409122557145794588e+02
8.370000000000000000e+02 9.996176254043959375e+01
8.380000000000000000e+02 8.569174704003395959e+01
8.390000000000000000e+02 7.721024347230803642e+01
8.400000000000000000e+02 1.019012306926581033e+02
8.410000000000000000e+02 1.124158751711260038e+02
8.420000000000000000e+02 1.249944666044383723e+02
8.430000000000000000e+02 1.339425275254090195e+02
8.440000000000000000e+02 1.791341038581195733e+02
8.450000000000000000e+02 2.075218909354906884e+02
8.460000000000000000e+02 2.043115713337481907e+02
8.470000000000000000e+02 2.409289087118854411e+02
8.480000000000000000e+02 3.441940652769134203e+02
8.490000000000000000e+02 3.165868654635964390e+02
8.500000000000000000e+02 3.529061109935713034e+02
8.510000000000000000e+02 4.415042676000849156e+02
8.520000000000000000e+02 5.372906066998514234e+02
8.530000000000000000e+02 6.030885831362803629e+02
8.540000000000000000e+02 6.715215897967611909e+02
8.550000000000000000e+02 8.295618837585503798e+02
8.560000000000000000e+02 9.079479658576979091e+02
8.570000000000000000e+02 1.101456566687405029e+03
8.580000000000000000e+02 1.219547599875541891e+03
8.590000000000000000e+02 1.368404392034841521e+03
8.600000000000000000e+02 1.554114838830117606e+03
8.610000000000000000e+02 1.717996060165971812e+03
8.620000000000000000e+02 1.936513237710016938e+03
8.630000000000000000e+02 2.161192455092302680e+03
8.640000000000000000e+02 2.362860476457164168e+03
8.650000000000000000e+02 2.614367381248707261e+03
8.660000000000000000e+02 2.871617395768515962e+03
8.670000000000000000e+02 3.072979837585564837e+03
8.680000000000000000e+02 3.272652447417556687e+03
8.690000000000000000e+02 3.527491103298078087e+03
8.700000000000000000e+02 3.603415649108252637e+03
8.710000000000000000e+02 3.533552953951457766e+03
8.720000000000000000e+02 3.418619454262596264e+03
8.730000000000000000e+02 3.273836073828281314e+03
8.740000000000000000e+02 3.012639627463194756e+03
8.750000000000000000e+02 2.689973118232724573e+03
8.760000000000000000e+02 2.420314365408534286e+03
8.770000000000000000e+02 2.098072667911226290e+03
8.780000000000000000e+02 1.830943549678493582e+03
8.790000000000000000e+02 1.661651070095395880e+03
8.800000000000000000e+02 1.501197113254510441e+03
8.810000000000000000e+02 1.412739054760422960e+03
8.820000000000000000e+02 1.405886675031107643e+03
8.830000000000000000e+02 1.395562108068863154e+03
8.840000000000000000e+02 1.339741296826384996e+03
8.850000000000000000e+02 1.377203789047917326e+03
8.860000000000000000e+02 1.435945308857084910e+03
8.870000000000000000e+02 1.479662464633893705e+03
8.880000000000000000e+02 1.477844764364238927e+03
8.890000000000000000e+02 1.471173540759179104e+03
8.900000000000000000e+02 1.447968884048951850e+03
8.910000000000000000e+02 1.364962291225888066e+03
8.920000000000000000e+02 1.333709529350756839e+03
8.930000000000000000e+02 1.326331928438083423e+03
8.940000000000000000e+02 1.289245809583073878e+03
8.950000000000000000e+02 1.266385762082555402e+03
8.960000000000000000e+02 1.261347513171541095e+03
8.970000000000000000e+02 1.251852986309893822e+03
8.980000000000000000e+02 1.226868106409458278e+03
8.990000000000000000e+02 1.205435319369556282e+03
9.000000000000000000e+02 1.209208951877203162e+03
9.010000000000000000e+02 1.120190037544077541e+03
9.020000000000000000e+02 1.088410425134798743e+03
9.030000000000000000e+02 1.125583845675171915e+03
9.040000000000000000e+02 1.145578202240199062e+03
9.050000000000000000e+02 1.189794236416425520e+03
9.060000000000000000e+02 1.299296769757311949e+03
9.070000000000000000e+02 1.286539651524579995e+03
9.080000000000000000e+02 1.359300369556201304e+03
9.090000000000000000e+02 1.467254820991495080e+03
9.100000000000000000e+02 1.575785522505703511e+03
9.110000000000000000e+02 1.687010906036093047e+03
9.120000000000000000e+02 1.859452350342251975e+03
9.130000000000000000e+02 2.112549274424397026e+03
9.140000000000000000e+02 2.389352744658785468e+03
9.150000000000000000e+02 2.701326528728477570e+03
9.160000000000000000e+02 3.053911682638451111e+03
9.170000000000000000e+02 3.376758247044181644e+03
9.180000000000000000e+02 3.816723823480600913e+03
9.190000000000000000e+02 4.198598582866619836e+03
9.200000000000000000e+02 4.535185249740715335e+03
9.210000000000000000e+02 4.951408746733037333e+03
9.220000000000000000e+02 5.305864594897315328e+03
9.230000000000000000e+02 5.691736650280022332e+03
9.240000000000000000e+02 5.915639213648619261e+03
9.250000000000000000e+02 6.001267148900871689e+03
9.260000000000000000e+02 5.931164647790912568e+03
9.270000000000000000e+02 5.698860905848198854e+03
9.280000000000000000e+02 5.334838147272346760e+03
9.290000000000000000e+02 4.873781810205348847e+03
9.300000000000000000e+02 4.331580316258836319e+03
9.310000000000000000e+02 3.711568269446154318e+03
9.320000000000000000e+02 2.991612789877600335e+03
9.330000000000000000e+02 2.521427046255974346e+03
9.340000000000000000e+02 2.065985288736797429e+03
9.350000000000000000e+02 1.671455961211351678e+03
9.360000000000000000e+02 1.362934504252241823e+03
9.370000000000000000e+02 1.033062229703386038e+03
9.380000000000000000e+02 9.080050541476663284e+02
9.390000000000000000e+02 6.768363101431268660e+02
9.400000000000000000e+02 5.795719918066802165e+02
9.410000000000000000e+02 5.318495163417677531e+02
9.420000000000000000e+02 4.378188818087531899e+02
9.430000000000000000e+02 3.096325487243310022e+02
9.440000000000000000e+02 2.295364698672748034e+02
9.450000000000000000e+02 2.123343441817043242e+02
9.460000000000000000e+02 1.658521413192273144e+02
9.470000000000000000e+02 1.130601395686467043e+02
9.480000000000000000e+02 1.901143289981046181e+01
9.490000000000000000e+02 2.802832655050991661e+01
9.500000000000000000e+02 1.792894605977139122e+00
9.510000000000000000e+02 5.859697750881542788e+01
9.520000000000000000e+02 5.104413812072352385e+01
9.530000000000000000e+02 1.696072243186148754e+01
9.540000000000000000e+02 8.160262283758465074e+00
9.550000000000000000e+02 5.019049495954959639e+00
9.560000000000000000e+02 3.320232445550701783e+01
9.570000000000000000e+02 6.349328184194143176e+01
9.580000000000000000e+02 2.626121480149403808e+01
9.590000000000000000e+02 2.889533854801960899e+01
9.600000000000000000e+02 5.407813949595558256e+01
9.610000000000000000e+02 8.375389400124507233e+01
9.620000000000000000e+02 1.270318355320489587e+02
9.630000000000000000e+02 1.626304211989231590e+02
9.640000000000000000e+02 2.659862300705128746e+02
9.650000000000000000e+02 3.231211270483311750e+02
9.660000000000000000e+02 3.313511290603611315e+02
9.670000000000000000e+02 3.499300919535479011e+02
9.680000000000000000e+02 4.250143925948927972e+02
9.690000000000000000e+02 5.602725909147436596e+02
9.700000000000000000e+02 6.954911315636729796e+02
9.710000000000000000e+02 8.730373113254494228e+02
9.720000000000000000e+02 9.838632028209901819e+02
9.730000000000000000e+02 1.131874143094152487e+03
9.740000000000000000e+02 1.271571985480192097e+03
9.750000000000000000e+02 1.477786100808963056e+03
9.760000000000000000e+02 1.730789124844470280e+03
9.770000000000000000e+02 1.913496753578100652e+03
9.780000000000000000e+02 2.035068042107450992e+03
9.790000000000000000e+02 2.219518006845059972e+03
9.800000000000000000e+02 2.379263877411328849e+03
9.810000000000000000e+02 2.466917879693010946e+03
9.820000000000000000e+02 2.494433130678282396e+03
9.830000000000000000e+02 2.455956715826589516e+03
9.840000000000000000e+02 2.310474016801489597e+03
9.850000000000000000e+02 2.113609716863723406e+03
9.860000000000000000e+02 1.951453445758145108e+03
9.870000000000000000e+02 1.745624904998960574e+03
9.880000000000000000e+02 1.608145342667495697e+03
9.890000000000000000e+02 1.417437579340385128e+03
9.900000000000000000e+02 1.176659938187097623e+03
9.910000000000000000e+02 9.581630382078366210e+02
9.920000000000000000e+02 8.107328642812680073e+02
9.930000000000000000e+02 7.057509680149341875e+02
9.940000000000000000e+02 6.157828728894422738e+02
9.950000000000000000e+02 5.668797464122775409e+02
9.960000000000000000e+02 4.866726937357394149e+02
9.970000000000000000e+02 3.923383720597394699e+02
9.980000000000000000e+02 3.147257626088763232e+02
9.990000000000000000e+02 2.993529958514830582e+02
1.000000000000000000e+03 2.215925380439293804e+02
1.001000000000000000e+03 1.719235840248977638e+02
1.002000000000000000e+03 1.725836541493788729e+02
1.003000000000000000e+03 1.033783410788369537e+02
1.004000000000000000e+03 1.381344549792527232e+02
1.005000000000000000e+03 1.073061618257258374e+02
1.006000000000000000e+03 1.222093049792531616e+02
1.007000000000000000e+03 1.052067758506240693e+02
1.008000000000000000e+03 4.231412078674962629e+01
1.009000000000000000e+03 2.704950836099550315e+01
1.010000000000000000e+03 2.596817238589181542e+01
1.011000000000000000e+03 1.115966549999999913e+01
1.012000000000000000e+03 1.348145095435673113e+01
1.013000000000000000e+03 2.416906132780079730e+01
1.014000000000000000e+03 7.017278705394682348e+00
1.015000000000000000e+03 1.402214825311279078e+01
1.016000000000000000e+03 2.770387427385875512e+01
1.017000000000000000e+03 4.250930813664522390e+01
1.018000000000000000e+03 2.974800161825674394e+01
1.019000000000000000e+03 7.805751703319140589e+00
1.020000000000000000e+03 2.516454053941985691e+01
1.021000000000000000e+03 5.457275116182557895e+01
1.022000000000000000e+03 4.771813788381609811e+01
1.023000000000000000e+03 5.097147008298751558e+01
1.024000000000000000e+03 4.182060572614081906e+01
1.025000000000000000e+03 3.099953641821950256e+01
1.026000000000000000e+03 2.681880303942632082e+01
1.027000000000000000e+03 1.556293646058860247e+01
1.028000000000000000e+03 4.144230506224076294e+01
1.029000000000000000e+03 1.311495840248866962e+01
1.030000000000000000e+03 6.430830199170922690e+00
1.031000000000000000e+03 8.791279078837888505e+00
1.032000000000000000e+03 3.569279174273954425e+01
1.033000000000000000e+03 7.117305397515586662e+01
1.034000000000000000e+03 5.446268630705534974e+01
1.035000000000000000e+03 5.065902454356844231e+01
1.036000000000000000e+03 8.855611352697428629e+01
1.037000000000000000e+03 1.233977571428573299e+02
1.038000000000000000e+03 1.178720078838178154e+02
1.039000000000000000e+03 1.030091726141074702e+02
1.040000000000000000e+03 1.047686910373464713e+02
1.041000000000000000e+03 1.543471626555977423e+02
1.042000000000000000e+03 1.987187941908719324e+02
1.043000000000000000e+03 2.604698782157725532e+02
1.044000000000000000e+03 2.306155195020824067e+02
1.045000000000000000e+03 2.102212734439818007e+02
1.046000000000000000e+03 2.457381261410789648e+02
1.047000000000000000e+03 2.523991132780095370e+02
1.048000000000000000e+03 2.851340344398290654e+02
1.049000000000000000e+03 3.521772448132779232e+02
1.050000000000000000e+03 2.907075053941854321e+02
1.051000000000000000e+03 2.637401394190871429e+02
1.052000000000000000e+03 2.792816651452279189e+02
1.053000000000000000e+03 2.423773883817397916e+02
1.054000000000000000e+03 2.625800447204928787e+02
1.055000000000000000e+03 2.908488904564340487e+02
1.056000000000000000e+03 2.851526219917026310e+02
1.057000000000000000e+03 4.184928568464810610e+02
1.058000000000000000e+03 4.450981576763467729e+02
1.059000000000000000e+03 5.020567375518670588e+02
1.060000000000000000e+03 5.999438701244865797e+02
1.061000000000000000e+03 6.775472263485510211e+02
1.062000000000000000e+03 6.986370248447193489e+02
1.063000000000000000e+03 8.389583580912953948e+02
1.064000000000000000e+03 1.033917688796691209e+03
1.065000000000000000e+03 1.124524427385887520e+03
1.066000000000000000e+03 1.204102768115942354e+03
1.067000000000000000e+03 1.299632516597514723e+03
1.068000000000000000e+03 1.325677871369293598e+03
1.069000000000000000e+03 1.409644155601656621e+03
1.070000000000000000e+03 1.495950921161827637e+03
1.071000000000000000e+03 1.453978726141067682e+03
1.072000000000000000e+03 1.431338937759335749e+03
1.073000000000000000e+03 1.406533149377592963e+03
1.074000000000000000e+03 1.320210921161819215e+03
1.075000000000000000e+03 1.196880919087152733e+03
1.076000000000000000e+03 1.040098663900416113e+03
1.077000000000000000e+03 1.006523657676347966e+03
1.078000000000000000e+03 9.966416890041493843e+02
1.079000000000000000e+03 9.849035058091284327e+02
1.080000000000000000e+03 1.069358082987553871e+03
1.081000000000000000e+03 1.051672082987543945e+03
1.082000000000000000e+03 1.082990954356836937e+03
1.083000000000000000e+03 1.121764855072464115e+03
1.084000000000000000e+03 1.153646618257268074e+03
1.085000000000000000e+03 1.308223089211604474e+03
1.086000000000000000e+03 1.344671678423230560e+03
1.087000000000000000e+03 1.479445339544515491e+03
1.088000000000000000e+03 1.626270236514530097e+03
1.089000000000000000e+03 1.772074070539412105e+03
1.090000000000000000e+03 1.792102385892116445e+03
1.091000000000000000e+03 1.765192784232363920e+03
1.092000000000000000e+03 1.726319744813283251e+03
1.093000000000000000e+03 1.658672273858923745e+03
1.094000000000000000e+03 1.542128892116178349e+03
1.095000000000000000e+03 1.370709504149363056e+03
1.096000000000000000e+03 1.221175468879675691e+03
1.097000000000000000e+03 1.108724941908713163e+03
1.098000000000000000e+03 1.008998502074681824e+03
1.099000000000000000e+03 7.910918318840766688e+02
1.100000000000000000e+03 6.598795060165990662e+02
1.101000000000000000e+03 5.865961286307031060e+02
1.102000000000000000e+03 5.608030284232368103e+02
1.103000000000000000e+03 5.094850085062324752e+02
1.104000000000000000e+03 4.004684385093164565e+02
1.105000000000000000e+03 3.635719904564315357e+02
1.106000000000000000e+03 3.673251058091296954e+02
1.107000000000000000e+03 3.385731381742747885e+02
1.108000000000000000e+03 3.062530304347810670e+02
1.109000000000000000e+03 2.710269101659770286e+02
1.110000000000000000e+03 2.548281823651456932e+02
1.111000000000000000e+03 2.096628943983396312e+02
1.112000000000000000e+03 1.598032828157311371e+02
1.113000000000000000e+03 1.161594244813312287e+02
1.114000000000000000e+03 9.448702659750969701e+01
1.115000000000000000e+03 1.203715381742719046e+02
1.116000000000000000e+03 9.760633768116196052e+01
1.117000000000000000e+03 1.484234195020753191e+02
1.118000000000000000e+03 9.402204636929333503e+01
1.119000000000000000e+03 1.063418137966828994e+02
1.120000000000000000e+03 1.125071124481334692e+02
1.121000000000000000e+03 1.020589912863070197e+02
1.122000000000000000e+03 7.729408746887760628e+01
1.123000000000000000e+03 8.223774904564075428e+01
1.124000000000000000e+03 1.152962195020736260e+02
1.125000000000000000e+03 9.791928238589025568e+01
1.126000000000000000e+03 3.578493313278357846e+01
1.127000000000000000e+03 7.845006213692737163e+01
1.128000000000000000e+03 9.241341875776403469e+01
1.129000000000000000e+03 3.643281443983280354e+01
1.130000000000000000e+03 6.619811161825178658e+01
1.131000000000000000e+03 1.212754514522812315e+02
1.132000000000000000e+03 8.724952904564047174e+01
1.133000000000000000e+03 5.125114811594154673e+01
1.134000000000000000e+03 6.026183821576790223e+01
1.135000000000000000e+03 6.202277213692962476e+01
1.136000000000000000e+03 5.668043419086848189e+01
1.137000000000000000e+03 9.465798399586452305e+00
1.138000000000000000e+03 1.703116751037336130e+01
1.139000000000000000e+03 5.120464518672541487e+01
1.140000000000000000e+03 1.661696701244983387e+01
1.141000000000000000e+03 9.928223850620987889e+00
1.142000000000000000e+03 1.442492716597667268e+01
1.143000000000000000e+03 4.498651692946003067e+01
1.144000000000000000e+03 8.840136130704576090e+01
1.145000000000000000e+03 8.081549329192731079e+01
1.146000000000000000e+03 1.275038446472695775e+01
1.147000000000000000e+03 5.504374485477130463e+01
1.148000000000000000e+03 5.175792639004301066e+01
1.149000000000000000e+03 5.307881112032735160e+00
1.150000000000000000e+03 4.377107657676801011e+01
1.151000000000000000e+03 1.105813954772011698e+01
1.152000000000000000e+03 1.169930819502089925e+01
1.153000000000000000e+03 2.557247917184448482e+01
1.154000000000000000e+03 4.473878141078859727e+01
1.155000000000000000e+03 4.062183639004157953e+01
1.156000000000000000e+03 5.387827385892281029e+01
1.157000000000000000e+03 7.942613265559982949e+01
1.158000000000000000e+03 6.092062771784215158e+01
1.159000000000000000e+03 5.822117526970924217e+01
1.160000000000000000e+03 2.212325516597586272e+01
1.161000000000000000e+03 1.332419717842313673e+02
1.162000000000000000e+03 5.317784552795325936e+01
1.163000000000000000e+03 3.703409854771962983e+01
1.164000000000000000e+03 8.781792012440966744e+00
1.165000000000000000e+03 3.248707489626231393e+01
1.166000000000000000e+03 3.378417999999999921e+01
1.167000000000000000e+03 8.735035304980888426e+00
1.168000000000000000e+03 2.933627211618432185e+01
1.169000000000000000e+03 3.158836149377392388e+01
1.170000000000000000e+03 1.027238211180132481e+02
1.171000000000000000e+03 8.729969941908518649e+01
1.172000000000000000e+03 3.159978593361167754e+01
1.173000000000000000e+03 3.283321307053971339e+01
1.174000000000000000e+03 4.560503643892378989e+01
1.175000000000000000e+03 3.023370921162018021e+01
1.176000000000000000e+03 5.029030582987515174e+01
1.177000000000000000e+03 3.852827004148988976e+01
1.178000000000000000e+03 3.939208557883156914e+01
1.179000000000000000e+03 7.021933858921261162e+01
1.180000000000000000e+03 8.439870763488650951e+00
1.181000000000000000e+03 1.003691680082929878e+02
1.182000000000000000e+03 1.068477800830005542e+01
1.183000000000000000e+03 1.292275969502119182e+01
1.184000000000000000e+03 9.096284080913220293e+01
1.185000000000000000e+03 1.019724367012468491e+02
1.186000000000000000e+03 8.428632199170176875e+01
1.187000000000000000e+03 8.021138535269720649e+01
1.188000000000000000e+03 7.267850506224127116e+01
1.189000000000000000e+03 6.181101531120366843e+01
1.190000000000000000e+03 4.357838643153530001e+01
1.191000000000000000e+03 2.675095848547753619e+01
1.192000000000000000e+03 5.508834259335883132e+01
1.193000000000000000e+03 6.617436221991744105e+01
1.194000000000000000e+03 4.950654726141110729e+01
1.195000000000000000e+03 6.244468219461784741e+01
1.196000000000000000e+03 6.991607290456479973e+01
1.197000000000000000e+03 4.919527879668047632e+01
1.198000000000000000e+03 9.447574294606282308e+01
1.199000000000000000e+03 7.102262956522532988e+01
1.200000000000000000e+03 1.640243697925277999e+01
1.201000000000000000e+03 1.810523896265440058e+01
1.202000000000000000e+03 6.322447491701089461e+01
1.203000000000000000e+03 6.992878875776453640e+01
1.204000000000000000e+03 4.640488979253061075e+01
1.205000000000000000e+03 4.989254647303062029e+01
1.206000000000000000e+03 8.585960203319301343e+01
1.207000000000000000e+03 2.390013037267108231e+01
1.208000000000000000e+03 2.473090829875556551e+01
1.209000000000000000e+03 1.559459072614064290e+01
1.210000000000000000e+03 4.345173236514388293e+01
1.211000000000000000e+03 2.595602565974977338e+01
1.212000000000000000e+03 2.581403136518572339e+00
1.213000000000000000e+03 1.584405127800645552e+01
1.214000000000000000e+03 4.179227489626551773e+01
1.215000000000000000e+03 3.273979078837861323e+01
1.216000000000000000e+03 4.225685659751281520e+00
1.217000000000000000e+03 3.393269356846391815e+01
1.218000000000000000e+03 4.217960885892149747e+01
1.219000000000000000e+03 6.572571298755444502e+01
1.220000000000000000e+03 9.903844502074932166e+01
1.221000000000000000e+03 1.827617818672145233e+01
1.222000000000000000e+03 2.993575356846779556e+01
1.223000000000000000e+03 5.007731589211631729e+01
1.224000000000000000e+03 6.188398223602414561e+01
1.225000000000000000e+03 1.034777569294635526e+02
1.226000000000000000e+03 8.411772917012336848e+01
1.227000000000000000e+03 7.452335016598043538e+00
1.228000000000000000e+03 4.909377431535314429e+01
1.229000000000000000e+03 1.064053701244807684e+02
1.230000000000000000e+03 2.599791360996469436e+01
1.231000000000000000e+03 1.613880460165942310e+01
1.232000000000000000e+03 1.392165958506286749e+01
1.233000000000000000e+03 1.024503946058009518e+02
1.234000000000000000e+03 3.212335313278059346e+01
1.235000000000000000e+03 8.618910539419196937e+01
1.236000000000000000e+03 4.673088950931229135e+01
1.237000000000000000e+03 8.555813253108755845e+00
1.238000000000000000e+03 4.150307232365145893e+01
1.239000000000000000e+03 6.458723556016911971e+01
1.240000000000000000e+03 1.113301398340251183e+02
1.241000000000000000e+03 1.058084692946074483e+02
1.242000000000000000e+03 4.925114246887899583e+01
1.243000000000000000e+03 7.358629317427599403e+01
1.244000000000000000e+03 7.281641510373550830e+01
1.245000000000000000e+03 4.099101699792933573e+01
1.246000000000000000e+03 4.335294170124566904e+01
1.247000000000000000e+03 5.479281788381784679e+01
1.248000000000000000e+03 4.228153630705476473e+01
1.249000000000000000e+03 1.562567580912742571e+01
1.250000000000000000e+03 3.509767699170501576e+00
1.251000000000000000e+03 3.999947485476714526e+00
1.252000000000000000e+03 5.551739630705431239e+01
1.253000000000000000e+03 1.191595068322980495e+02
1.254000000000000000e+03 9.910622228216067242e+01
1.255000000000000000e+03 7.417678369294606000e+01
1.256000000000000000e+03 7.310244547717687169e+01
1.257000000000000000e+03 1.439853170124110093e+01
1.258000000000000000e+03 9.571660300829537960e+01
1.259000000000000000e+03 9.964160576763441668e+01
1.260000000000000000e+03 3.127610919086520624e+01
1.261000000000000000e+03 8.451399523808787251e+01
1.262000000000000000e+03 1.585404344398340015e+02
1.263000000000000000e+03 1.091752718672142350e+02
1.264000000000000000e+03 6.338880809128775695e+01
1.265000000000000000e+03 7.493407679089062867e+01
1.266000000000000000e+03 7.307772062240708522e+01
1.267000000000000000e+03 7.819137695020688739e+01
1.268000000000000000e+03 7.365795699170124067e+01
1.269000000000000000e+03 8.477259078838145001e+01
1.270000000000000000e+03 1.122841784232379609e+02
1.271000000000000000e+03 1.128341933609963519e+02
1.272000000000000000e+03 8.945731178423305607e+01
1.273000000000000000e+03 1.322880684647315093e+02
1.274000000000000000e+03 5.743207483402130720e+01
1.275000000000000000e+03 7.319864591286157918e+01
1.276000000000000000e+03 6.673564771784225513e+01
1.277000000000000000e+03 7.937148682572961889e+01
1.278000000000000000e+03 1.344135116182537502e+02
1.279000000000000000e+03 1.185553008298774671e+02
1.280000000000000000e+03 1.040519684647340739e+02
1.281000000000000000e+03 1.182047915352726477e+02
1.282000000000000000e+03 3.303940322981179634e+01
1.283000000000000000e+03 1.102015813278017191e+02
1.284000000000000000e+03 1.027668338381717064e+02
1.285000000000000000e+03 6.065486520747168697e+01
1.286000000000000000e+03 8.334264792531020305e+01
1.287000000000000000e+03 1.260436792531142487e+02
1.288000000000000000e+03 1.140379097925359133e+02
1.289000000000000000e+03 6.750828908713762644e+01
1.290000000000000000e+03 1.081577298755193510e+02
1.291000000000000000e+03 1.631354323651459026e+02
1.292000000000000000e+03 1.466249829875560806e+02
1.293000000000000000e+03 1.004677537136933694e+02
1.294000000000000000e+03 5.726608385891803721e+01
1.295000000000000000e+03 5.167699850621813340e+01
1.296000000000000000e+03 1.075989719502065753e+02
1.297000000000000000e+03 1.069806763485474193e+02
1.298000000000000000e+03 9.418023987551822529e+01
1.299000000000000000e+03 9.346695120332040574e+01
1.300000000000000000e+03 4.162049078838163041e+01
1.301000000000000000e+03 3.103025917013163948e+01
1.302000000000000000e+03 2.511267309128563738e+02
1.303000000000000000e+03 1.822000543568487387e+02
1.304000000000000000e+03 1.375898257261411004e+02
1.305000000000000000e+03 9.555887489626340425e+01
1.306000000000000000e+03 2.564493838174645646e+01
1.307000000000000000e+03 1.619687260248462124e+01
1.308000000000000000e+03 2.669991674273747506e+01
1.309000000000000000e+03 5.156635433609228869e+01
1.310000000000000000e+03 7.431844296680462492e+01
1.311000000000000000e+03 7.331544614906830759e+01
1.312000000000000000e+03 8.603877236514334470e+01
1.313000000000000000e+03 8.906006282157795795e+01
1.314000000000000000e+03 6.348248257260905802e+00
1.315000000000000000e+03 2.397553089027092099e+01
1.316000000000000000e+03 4.470519157676560695e+01
1.317000000000000000e+03 6.923157948133026984e+00
1.318000000000000000e+03 0.000000000000000000e+00
1.319000000000000000e+03 0.000000000000000000e+00
1.320000000000000000e+03 0.000000000000000000e+00
1.321000000000000000e+03 0.000000000000000000e+00
1.322000000000000000e+03 0.000000000000000000e+00
1.323000000000000000e+03 0.000000000000000000e+00
1.324000000000000000e+03 0.000000000000000000e+00
1.325000000000000000e+03 0.000000000000000000e+00
1.326000000000000000e+03 0.000000000000000000e+00
1.327000000000000000e+03 0.000000000000000000e+00
1.328000000000000000e+03 0.000000000000000000e+00
1.329000000000000000e+03 0.000000000000000000e+00
1.330000000000000000e+03 0.000000000000000000e+00
1.331000000000000000e+03 0.000000000000000000e+00
1.332000000000000000e+03 0.000000000000000000e+00
1.333000000000000000e+03 0.000000000000000000e+00
1.334000000000000000e+03 0.000000000000000000e+00
1.335000000000000000e+03 0.000000000000000000e+00
1.336000000000000000e+03 0.000000000000000000e+00
1.337000000000000000e+03 0.000000000000000000e+00
1.338000000000000000e+03 0.000000000000000000e+00
1.339000000000000000e+03 0.000000000000000000e+00
1.340000000000000000e+03 0.000000000000000000e+00
1.341000000000000000e+03 0.000000000000000000e+00
1.342000000000000000e+03 0.000000000000000000e+00
1.343000000000000000e+03 0.000000000000000000e+00
1.344000000000000000e+03 0.000000000000000000e+00
1.345000000000000000e+03 0.000000000000000000e+00
1.346000000000000000e+03 0.000000000000000000e+00
1.347000000000000000e+03 0.000000000000000000e+00
1.348000000000000000e+03 0.000000000000000000e+00
1.349000000000000000e+03 0.000000000000000000e+00
1.350000000000000000e+03 0.000000000000000000e+00
1.351000000000000000e+03 0.000000000000000000e+00
1.352000000000000000e+03 0.000000000000000000e+00
1.353000000000000000e+03 0.000000000000000000e+00
1.354000000000000000e+03 0.000000000000000000e+00
1.355000000000000000e+03 0.000000000000000000e+00
1.356000000000000000e+03 0.000000000000000000e+00
1.357000000000000000e+03 0.000000000000000000e+00
1.358000000000000000e+03 0.000000000000000000e+00
1.359000000000000000e+03 0.000000000000000000e+00
1.360000000000000000e+03 0.000000000000000000e+00
1.361000000000000000e+03 0.000000000000000000e+00
1.362000000000000000e+03 0.000000000000000000e+00
1.363000000000000000e+03 0.000000000000000000e+00
1.364000000000000000e+03 0.000000000000000000e+00
1.365000000000000000e+03 0.000000000000000000e+00
1.366000000000000000e+03 0.000000000000000000e+00
1.367000000000000000e+03 0.000000000000000000e+00
1.368000000000000000e+03 0.000000000000000000e+00
1.369000000000000000e+03 0.000000000000000000e+00
1.370000000000000000e+03 0.000000000000000000e+00
1.371000000000000000e+03 0.000000000000000000e+00
1.372000000000000000e+03 0.000000000000000000e+00
1.373000000000000000e+03 0.000000000000000000e+00
1.374000000000000000e+03 0.000000000000000000e+00
1.375000000000000000e+03 0.000000000000000000e+00
1.376000000000000000e+03 0.000000000000000000e+00
1.377000000000000000e+03 0.000000000000000000e+00
1.378000000000000000e+03 0.000000000000000000e+00
1.379000000000000000e+03 0.000000000000000000e+00
1.380000000000000000e+03 0.000000000000000000e+00
1.381000000000000000e+03 0.000000000000000000e+00
1.382000000000000000e+03 0.000000000000000000e+00
1.383000000000000000e+03 0.000000000000000000e+00
1.384000000000000000e+03 0.000000000000000000e+00
1.385000000000000000e+03 0.000000000000000000e+00
1.386000000000000000e+03 0.000000000000000000e+00
1.387000000000000000e+03 0.000000000000000000e+00
1.388000000000000000e+03 0.000000000000000000e+00
1.389000000000000000e+03 0.000000000000000000e+00
1.390000000000000000e+03 0.000000000000000000e+00
1.391000000000000000e+03 0.000000000000000000e+00
1.392000000000000000e+03 0.000000000000000000e+00
1.393000000000000000e+03 0.000000000000000000e+00
1.394000000000000000e+03 0.000000000000000000e+00
1.395000000000000000e+03 0.000000000000000000e+00
1.396000000000000000e+03 0.000000000000000000e+00
1.397000000000000000e+03 0.000000000000000000e+00
1.398000000000000000e+03 0.000000000000000000e+00
1.399000000000000000e+03 0.000000000000000000e+00
1.400000000000000000e+03 0.000000000000000000e+00
1.401000000000000000e+03 0.000000000000000000e+00
1.402000000000000000e+03 0.000000000000000000e+00
1.403000000000000000e+03 0.000000000000000000e+00
1.404000000000000000e+03 0.000000000000000000e+00
1.405000000000000000e+03 0.000000000000000000e+00
1.406000000000000000e+03 0.000000000000000000e+00
1.407000000000000000e+03 0.000000000000000000e+00
1.408000000000000000e+03 0.000000000000000000e+00
1.409000000000000000e+03 0.000000000000000000e+00
1.410000000000000000e+03 0.000000000000000000e+00
1.411000000000000000e+03 0.000000000000000000e+00
1.412000000000000000e+03 0.000000000000000000e+00
1.413000000000000000e+03 0.000000000000000000e+00
1.414000000000000000e+03 0.000000000000000000e+00
1.415000000000000000e+03 0.000000000000000000e+00
1.416000000000000000e+03 0.000000000000000000e+00
1.417000000000000000e+03 0.000000000000000000e+00
1.418000000000000000e+03 0.000000000000000000e+00
1.419000000000000000e+03 0.000000000000000000e+00
1.420000000000000000e+03 0.000000000000000000e+00
1.421000000000000000e+03 0.000000000000000000e+00
1.422000000000000000e+03 0.000000000000000000e+00
1.423000000000000000e+03 0.000000000000000000e+00
1.424000000000000000e+03 0.000000000000000000e+00
1.425000000000000000e+03 0.000000000000000000e+00
1.426000000000000000e+03 0.000000000000000000e+00
1.427000000000000000e+03 0.000000000000000000e+00
1.428000000000000000e+03 0.000000000000000000e+00
1.429000000000000000e+03 0.000000000000000000e+00
1.430000000000000000e+03 0.000000000000000000e+00
1.431000000000000000e+03 0.000000000000000000e+00
1.432000000000000000e+03 0.000000000000000000e+00
1.433000000000000000e+03 0.000000000000000000e+00
1.434000000000000000e+03 0.000000000000000000e+00
1.435000000000000000e+03 0.000000000000000000e+00
1.436000000000000000e+03 0.000000000000000000e+00
1.437000000000000000e+03 0.000000000000000000e+00
1.438000000000000000e+03 0.000000000000000000e+00
1.439000000000000000e+03 0.000000000000000000e+00
1.440000000000000000e+03 0.000000000000000000e+00
1.441000000000000000e+03 0.000000000000000000e+00
1.442000000000000000e+03 0.000000000000000000e+00
1.443000000000000000e+03 0.000000000000000000e+00
1.444000000000000000e+03 0.000000000000000000e+00
1.445000000000000000e+03 0.000000000000000000e+00
1.446000000000000000e+03 0.000000000000000000e+00
1.447000000000000000e+03 0.000000000000000000e+00
1.448000000000000000e+03 0.000000000000000000e+00
1.449000000000000000e+03 0.000000000000000000e+00
1.450000000000000000e+03 0.000000000000000000e+00
1.451000000000000000e+03 0.000000000000000000e+00
1.452000000000000000e+03 0.000000000000000000e+00
1.453000000000000000e+03 0.000000000000000000e+00
1.454000000000000000e+03 0.000000000000000000e+00
1.455000000000000000e+03 0.000000000000000000e+00
1.456000000000000000e+03 0.000000000000000000e+00
1.457000000000000000e+03 0.000000000000000000e+00
1.458000000000000000e+03 0.000000000000000000e+00
1.459000000000000000e+03 0.000000000000000000e+00
1.460000000000000000e+03 0.000000000000000000e+00
1.461000000000000000e+03 0.000000000000000000e+00
1.462000000000000000e+03 0.000000000000000000e+00
1.463000000000000000e+03 0.000000000000000000e+00
1.464000000000000000e+03 0.000000000000000000e+00
1.465000000000000000e+03 0.000000000000000000e+00
1.466000000000000000e+03 0.000000000000000000e+00
1.467000000000000000e+03 0.000000000000000000e+00
1.468000000000000000e+03 0.000000000000000000e+00
1.469000000000000000e+03 0.000000000000000000e+00
1.470000000000000000e+03 0.000000000000000000e+00
1.471000000000000000e+03 0.000000000000000000e+00
1.472000000000000000e+03 0.000000000000000000e+00
1.473000000000000000e+03 0.000000000000000000e+00
1.474000000000000000e+03 0.000000000000000000e+00
1.475000000000000000e+03 0.000000000000000000e+00
1.476000000000000000e+03 0.000000000000000000e+00
1.477000000000000000e+03 0.000000000000000000e+00
1.478000000000000000e+03 0.000000000000000000e+00
1.479000000000000000e+03 0.000000000000000000e+00
1.480000000000000000e+03 0.000000000000000000e+00
1.481000000000000000e+03 0.000000000000000000e+00
1.482000000000000000e+03 0.000000000000000000e+00
1.483000000000000000e+03 0.000000000000000000e+00
1.484000000000000000e+03 0.000000000000000000e+00
1.485000000000000000e+03 0.000000000000000000e+00
1.486000000000000000e+03 0.000000000000000000e+00
1.487000000000000000e+03 0.000000000000000000e+00
1.488000000000000000e+03 0.000000000000000000e+00
1.489000000000000000e+03 0.000000000000000000e+00
1.490000000000000000e+03 0.000000000000000000e+00
1.491000000000000000e+03 0.000000000000000000e+00
1.492000000000000000e+03 0.000000000000000000e+00
1.493000000000000000e+03 0.000000000000000000e+00
1.494000000000000000e+03 0.000000000000000000e+00
1.495000000000000000e+03 0.000000000000000000e+00
1.496000000000000000e+03 0.000000000000000000e+00
1.497000000000000000e+03 0.000000000000000000e+00
1.498000000000000000e+03 0.000000000000000000e+00
1.499000000000000000e+03 0.000000000000000000e+00
1.500000000000000000e+03 0.000000000000000000e+00
