1.010000000000000000e+02 0.000000000000000000e+00
1.020000000000000000e+02 0.000000000000000000e+00
1.030000000000000000e+02 0.000000000000000000e+00
1.040000000000000000e+02 0.000000000000000000e+00
1.050000000000000000e+02 0.000000000000000000e+00
1.060000000000000000e+02 0.000000000000000000e+00
1.070000000000000000e+02 0.000000000000000000e+00
1.080000000000000000e+02 0.000000000000000000e+00
1.090000000000000000e+02 0.000000000000000000e+00
1.100000000000000000e+02 0.000000000000000000e+00
1.110000000000000000e+02 0.000000000000000000e+00
1.120000000000000000e+02 0.000000000000000000e+00
1.130000000000000000e+02 0.000000000000000000e+00
1.140000000000000000e+02 0.000000000000000000e+00
1.150000000000000000e+02 0.000000000000000000e+00
1.160000000000000000e+02 0.000000000000000000e+00
1.170000000000000000e+02 0.000000000000000000e+00
1.180000000000000000e+02 0.000000000000000000e+00
1.190000000000000000e+02 0.000000000000000000e+00
1.200000000000000000e+02 0.000000000000000000e+00
1.210000000000000000e+02 0.000000000000000000e+00
1.220000000000000000e+02 0.000000000000000000e+00
1.230000000000000000e+02 0.000000000000000000e+00
1.240000000000000000e+02 0.000000000000000000e+00
1.250000000000000000e+02 0.000000000000000000e+00
1.260000000000000000e+02 0.000000000000000000e+00
1.270000000000000000e+02 0.000000000000000000e+00
1.280000000000000000e+02 1.278647981746551254e-01
1.290000000000000000e+02 5.905702865743839958e+00
1.300000000000000000e+02 4.176492871422646402e+01
1.310000000000000000e+02 6.211772340385810764e+01
1.320000000000000000e+02 3.301433510889923184e+01
1.330000000000000000e+02 4.785630056408156641e+00
1.340000000000000000e+02 7.381553697365708544e+00
1.350000000000000000e+02 5.872567354698171016e+01
1.360000000000000000e+02 1.218084170053911635e+02
1.370000000000000000e+02 1.468619867662310696e+02
1.380000000000000000e+02 1.282281782202867078e+02
1.390000000000000000e+02 2.462046774320677684e+02
1.400000000000000000e+02 2.485664320472937163e+02
1.410000000000000000e+02 2.055049842356357601e+02
1.420000000000000000e+02 2.044645417133374394e+02
1.430000000000000000e+02 1.949548879485583939e+02
1.440000000000000000e+02 1.964412364032358198e+02
1.450000000000000000e+02 1.805885827872251070e+02
1.460000000000000000e+02 1.443787398879897808e+02
1.470000000000000000e+02 1.233800742584525665e+02
1.480000000000000000e+02 1.211916180837826289e+02
1.490000000000000000e+02 1.494626965152452556e+02
1.500000000000000000e+02 1.851336279817468267e+02
1.510000000000000000e+02 1.807023750881560034e+02
1.520000000000000000e+02 1.846262466085874507e+02
1.530000000000000000e+02 1.606766289981334523e+02
1.540000000000000000e+02 1.591986444306171506e+02
1.550000000000000000e+02 2.349473141671853682e+02
1.560000000000000000e+02 2.162612689068657801e+02
1.570000000000000000e+02 1.754169390375444095e+02
1.580000000000000000e+02 1.598646192283758865e+02
1.590000000000000000e+02 1.731251620825555335e+02
1.600000000000000000e+02 1.624110762704833064e+02
1.610000000000000000e+02 1.638961332503629649e+02
1.620000000000000000e+02 1.666982354698195365e+02
1.630000000000000000e+02 1.536426686372120116e+02
1.640000000000000000e+02 1.118846893569797629e+02
1.650000000000000000e+02 7.786705005599343110e+01
1.660000000000000000e+02 4.839084827836578029e+01
1.670000000000000000e+02 2.714836517734893917e+01
1.680000000000000000e+02 2.645063038573218250e+01
1.690000000000000000e+02 6.535448549263622908e+01
1.700000000000000000e+02 1.993442326488266190e+02
1.710000000000000000e+02 2.800014324761509670e+02
1.720000000000000000e+02 1.654197380833846296e+02
1.730000000000000000e+02 1.502036130678282859e+02
1.740000000000000000e+02 2.107033206138526111e+02
1.750000000000000000e+02 2.733400950010365023e+02
1.760000000000000000e+02 3.022751868077165227e+02
1.770000000000000000e+02 3.286545149108254122e+02
1.780000000000000000e+02 2.963744274009544029e+02
1.790000000000000000e+02 2.529207429786353600e+02
1.800000000000000000e+02 2.252945414021982913e+02
1.810000000000000000e+02 1.789623838830116540e+02
1.820000000000000000e+02 1.429062601949803195e+02
1.830000000000000000e+02 1.321557363824931883e+02
1.840000000000000000e+02 1.268809144160959050e+02
1.850000000000000000e+02 9.423155252022384332e+01
1.860000000000000000e+02 8.596109798838655536e+01
1.870000000000000000e+02 6.565133028417363903e+01
1.880000000000000000e+02 4.387069002696546960e+01
1.890000000000000000e+02 5.124497352965583019e+01
1.900000000000000000e+02 6.493681794026137766e+01
1.910000000000000000e+02 5.326114996473767604e+01
1.920000000000000000e+02 4.414418646753772890e+01
1.930000000000000000e+02 6.567380924911893203e+01
1.940000000000000000e+02 1.167169098942130034e+02
1.950000000000000000e+02 1.364717181705040048e+02
1.960000000000000000e+02 1.659025304501135452e+02
1.970000000000000000e+02 2.093999973242065380e+02
1.980000000000000000e+02 2.146893721219664712e+02
1.990000000000000000e+02 2.515574311138767598e+02
2.000000000000000000e+02 2.910410285625387132e+02
2.010000000000000000e+02 3.169056482057665676e+02
2.020000000000000000e+02 3.352218138145614716e+02
2.030000000000000000e+02 3.710921223397636481e+02
2.040000000000000000e+02 4.031037494710639066e+02
2.050000000000000000e+02 4.324850006222771412e+02
2.060000000000000000e+02 4.625501428452926689e+02
2.070000000000000000e+02 4.850023879278159029e+02
2.080000000000000000e+02 5.064713450528935255e+02
2.090000000000000000e+02 5.180827349854831709e+02
2.100000000000000000e+02 5.167336173408006061e+02
2.110000000000000000e+02 5.093872633478530929e+02
2.120000000000000000e+02 5.063961055578598121e+02
2.130000000000000000e+02 5.177019064716861294e+02
2.140000000000000000e+02 5.144350922630158038e+02
2.150000000000000000e+02 4.659554637287429273e+02
2.160000000000000000e+02 4.279957203484754586e+02
2.170000000000000000e+02 3.937268604231489348e+02
2.180000000000000000e+02 3.534873735532054297e+02
2.190000000000000000e+02 3.071160067828248543e+02
2.200000000000000000e+02 2.764154018875751149e+02
2.210000000000000000e+02 2.600013924082142012e+02
2.220000000000000000e+02 2.265208888612328053e+02
2.230000000000000000e+02 1.881831665007260312e+02
2.240000000000000000e+02 2.001310672682016332e+02
2.250000000000000000e+02 1.729495355320473777e+02
2.260000000000000000e+02 1.562001985687616354e+02
2.270000000000000000e+02 1.497836968477809592e+02
2.280000000000000000e+02 1.303199628085458244e+02
2.290000000000000000e+02 1.105650946276705895e+02
2.300000000000000000e+02 8.536032999792639941e+01
2.310000000000000000e+02 7.565849042314872008e+01
2.320000000000000000e+02 8.738490073221331045e+01
2.330000000000000000e+02 9.165776974694045975e+01
2.340000000000000000e+02 6.630609901265307826e+01
2.350000000000000000e+02 6.280444056627229799e+01
2.360000000000000000e+02 7.236723084629724667e+01
2.370000000000000000e+02 4.761744675793394777e+01
2.380000000000000000e+02 3.114909935075711545e+01
2.390000000000000000e+02 3.727417613980482258e+01
2.400000000000000000e+02 4.389276083385188088e+01
2.410000000000000000e+02 3.777053981953951478e+01
2.420000000000000000e+02 5.154803675793402817e+01
2.430000000000000000e+02 3.526840736154346700e+01
2.440000000000000000e+02 2.288590422646203493e+01
2.450000000000000000e+02 1.913273336652120449e+01
2.460000000000000000e+02 1.283730608172580645e+01
2.470000000000000000e+02 1.693687618751305735e+01
2.480000000000000000e+02 9.303822956855196225e+00
2.490000000000000000e+02 3.119742880522703388e+01
2.500000000000000000e+02 1.736506951462349235e+01
2.510000000000000000e+02 3.351123832399897751e+00
2.520000000000000000e+02 7.439816205559006690e+00
2.530000000000000000e+02 1.300850987658175129e+01
2.540000000000000000e+02 1.696172355942747956e+01
2.550000000000000000e+02 4.092289104542627953e+00
2.560000000000000000e+02 1.783139139182729238e+01
2.570000000000000000e+02 8.500196907488426490e+00
2.580000000000000000e+02 6.286795301182193541e+00
2.590000000000000000e+02 4.541174349097695462e+00
2.600000000000000000e+02 2.210265897116779499e+01
2.610000000000000000e+02 4.584200367067325921e+00
2.620000000000000000e+02 2.554139723086478853e+01
2.630000000000000000e+02 6.570514991288126438e+00
2.640000000000000000e+02 2.559907561177947599e+01
2.650000000000000000e+02 3.081614322132329775e+01
2.660000000000000000e+02 1.739948919933597082e+01
2.670000000000000000e+02 8.641389671920265414e+00
2.680000000000000000e+02 1.996760438705670637e+01
2.690000000000000000e+02 3.489826216966957162e+00
2.700000000000000000e+02 3.381934178763937382e+01
2.710000000000000000e+02 1.932802318191360769e+01
2.720000000000000000e+02 3.870139125700200822e+01
2.730000000000000000e+02 1.702622484131900293e+01
2.740000000000000000e+02 1.820994220286267051e+01
2.750000000000000000e+02 1.487459862684065826e+01
2.760000000000000000e+02 1.763607914125699949e+01
2.770000000000000000e+02 3.032468548848831880e+00
2.780000000000000000e+02 9.317872321095208576e-01
2.790000000000000000e+02 2.903925889234656665e+00
2.800000000000000000e+02 2.953215467952702511e+00
2.810000000000000000e+02 1.668846441817046156e+01
2.820000000000000000e+02 3.090354034225263291e+01
2.830000000000000000e+02 2.272977318212030440e+01
2.840000000000000000e+02 6.139734147271973086e+00
2.850000000000000000e+02 3.157690938809388115e+01
2.860000000000000000e+02 3.683452759802817056e+00
2.870000000000000000e+02 1.241179137315917984e+02
2.880000000000000000e+02 1.141312484197425619e+02
2.890000000000000000e+02 6.581408139182735795e+01
2.900000000000000000e+02 7.001356812694449161e+01
2.910000000000000000e+02 6.201951017834921487e+01
2.920000000000000000e+02 6.494220310101630389e+01
2.930000000000000000e+02 5.075484001452051075e+01
2.940000000000000000e+02 4.097704495230178168e+01
2.950000000000000000e+02 6.387278995644036428e+01
2.960000000000000000e+02 7.557909506533901833e+01
2.970000000000000000e+02 8.281767894027375121e+01
2.980000000000000000e+02 8.806594207425844445e+01
2.990000000000000000e+02 9.743355504667064793e+01
3.000000000000000000e+02 1.226775072806475464e+02
3.010000000000000000e+02 1.511408693217176733e+02
3.020000000000000000e+02 1.705475247251607698e+02
3.030000000000000000e+02 1.900727607135455060e+02
3.040000000000000000e+02 2.100369748599875379e+02
3.050000000000000000e+02 2.040950171126322346e+02
3.060000000000000000e+02 2.208347356979871279e+02
3.070000000000000000e+02 2.752360511512152357e+02
3.080000000000000000e+02 3.217837650902304745e+02
3.090000000000000000e+02 3.151240199128812378e+02
3.100000000000000000e+02 3.183246616054755123e+02
3.110000000000000000e+02 4.732557574154787972e+02
3.120000000000000000e+02 5.583361478116573835e+02
3.130000000000000000e+02 4.904650240199121640e+02
3.140000000000000000e+02 5.437116373081705660e+02
3.150000000000000000e+02 5.436126987139598441e+02
3.160000000000000000e+02 5.697167197469401572e+02
3.170000000000000000e+02 6.195994654914971989e+02
3.180000000000000000e+02 6.371793785936528138e+02
3.190000000000000000e+02 6.441769729101846451e+02
3.200000000000000000e+02 6.701006574243056093e+02
3.210000000000000000e+02 6.675576894420237295e+02
3.220000000000000000e+02 6.390363333540757367e+02
3.230000000000000000e+02 6.529402281211112040e+02
3.240000000000000000e+02 6.736014682638463000e+02
3.250000000000000000e+02 7.395841746110784243e+02
3.260000000000000000e+02 8.108266976975723992e+02
3.270000000000000000e+02 8.557088902924691638e+02
3.280000000000000000e+02 9.163449705247861630e+02
3.290000000000000000e+02 9.862907140012439413e+02
3.300000000000000000e+02 1.069451842771208021e+03
3.310000000000000000e+02 1.171786466708149646e+03
3.320000000000000000e+02 1.288157033602986985e+03
3.330000000000000000e+02 1.423408435594274351e+03
3.340000000000000000e+02 1.574417847542001937e+03
3.350000000000000000e+02 1.706073571458204697e+03
3.360000000000000000e+02 1.840887428126945224e+03
3.370000000000000000e+02 2.060673228168429432e+03
3.380000000000000000e+02 2.228886854179633247e+03
3.390000000000000000e+02 2.370684126322341399e+03
3.400000000000000000e+02 2.528477140605558816e+03
3.410000000000000000e+02 2.731736965152464563e+03
3.420000000000000000e+02 2.992871699439955137e+03
3.430000000000000000e+02 3.210365591663211490e+03
3.440000000000000000e+02 3.471134058908933184e+03
3.450000000000000000e+02 3.784110253266956533e+03
3.460000000000000000e+02 4.126291576524266929e+03
3.470000000000000000e+02 4.641791518772031850e+03
3.480000000000000000e+02 4.967747731176100388e+03
3.490000000000000000e+02 5.324473642264617411e+03
3.500000000000000000e+02 5.856779389545734375e+03
3.510000000000000000e+02 6.397662595519595925e+03
3.520000000000000000e+02 6.889113072169227962e+03
3.530000000000000000e+02 7.230338319850654443e+03
3.540000000000000000e+02 7.437724457373988116e+03
3.550000000000000000e+02 7.511379235843183778e+03
3.560000000000000000e+02 7.356156595104747794e+03
3.570000000000000000e+02 7.186419248288734707e+03
3.580000000000000000e+02 6.679622117817860271e+03
3.590000000000000000e+02 5.999023980087106793e+03
3.600000000000000000e+02 5.454138579340376964e+03
3.610000000000000000e+02 4.892552372121977896e+03
3.620000000000000000e+02 4.419292001659418020e+03
3.630000000000000000e+02 4.000034612321085206e+03
3.640000000000000000e+02 3.627009653391417032e+03
3.650000000000000000e+02 3.338919333955615912e+03
3.660000000000000000e+02 3.112161359883846671e+03
3.670000000000000000e+02 2.933943177141672550e+03
3.680000000000000000e+02 2.785689466708153304e+03
3.690000000000000000e+02 2.669783856461315736e+03
3.700000000000000000e+02 2.615943016590627394e+03
3.710000000000000000e+02 2.494924548848786799e+03
3.720000000000000000e+02 2.371746217174860703e+03
3.730000000000000000e+02 2.275191074657818262e+03
3.740000000000000000e+02 2.193820808545943692e+03
3.750000000000000000e+02 2.075882708151835232e+03
3.760000000000000000e+02 1.998612776026543997e+03
3.770000000000000000e+02 1.911427648413190582e+03
3.780000000000000000e+02 1.802256307405101325e+03
3.790000000000000000e+02 1.683904573620907286e+03
3.800000000000000000e+02 1.541236063472305204e+03
3.810000000000000000e+02 1.408445523957682781e+03
3.820000000000000000e+02 1.300848708774114812e+03
3.830000000000000000e+02 1.193613207633274214e+03
3.840000000000000000e+02 1.060746648620619226e+03
3.850000000000000000e+02 9.642841306160555632e+02
3.860000000000000000e+02 8.651896297448677160e+02
3.870000000000000000e+02 7.889868396805652537e+02
3.880000000000000000e+02 7.285037955196016810e+02
3.890000000000000000e+02 6.454707340178390496e+02
3.900000000000000000e+02 5.911290153080279879e+02
3.910000000000000000e+02 5.186054145612936281e+02
3.920000000000000000e+02 4.648449703173614580e+02
3.930000000000000000e+02 4.376334389960589988e+02
3.940000000000000000e+02 3.791505992532657388e+02
3.950000000000000000e+02 3.115233377100180405e+02
3.960000000000000000e+02 2.921827468063044080e+02
3.970000000000000000e+02 2.633994706077554611e+02
3.980000000000000000e+02 2.070351581207219169e+02
3.990000000000000000e+02 2.221445970551638425e+02
4.000000000000000000e+02 2.072684181705047308e+02
4.010000000000000000e+02 1.602560383945236140e+02
4.020000000000000000e+02 1.196313384902529577e+02
4.030000000000000000e+02 1.077437351379383443e+02
4.040000000000000000e+02 9.277968771001880555e+01
4.050000000000000000e+02 1.166393917876399087e+02
4.060000000000000000e+02 9.044970124248108334e+01
4.070000000000000000e+02 4.937243829946067564e+01
4.080000000000000000e+02 6.434849252022415556e+01
4.090000000000000000e+02 7.622508958929684297e+01
4.100000000000000000e+02 7.346687878888421608e+01
4.110000000000000000e+02 5.077946531217526172e+01
4.120000000000000000e+02 3.043363166977805179e+01
4.130000000000000000e+02 3.580086436333466082e+01
4.140000000000000000e+02 3.991527598008711664e+01
4.150000000000000000e+02 2.377624900642968697e+01
4.160000000000000000e+02 3.849655415387887025e+00
4.170000000000000000e+02 3.065530340800887821e+00
4.180000000000000000e+02 2.355571083385142472e+01
4.190000000000000000e+02 1.169014501036921416e+01
4.200000000000000000e+02 2.726465123419465897e-01
4.210000000000000000e+02 5.261438969093311435e+00
4.220000000000000000e+02 1.029822729392243197e+01
4.230000000000000000e+02 2.410566338518986385e+01
4.240000000000000000e+02 8.423678752955597204e+00
4.250000000000000000e+02 5.321651062850266456e+00
4.260000000000000000e+02 1.112820372246418188e+01
4.270000000000000000e+02 1.627916473553205634e+01
4.280000000000000000e+02 9.043502168015466580e+00
4.290000000000000000e+02 3.446281503007696045e+01
4.300000000000000000e+02 1.939697335407562662e+01
4.310000000000000000e+02 1.502890603920376122e+01
4.320000000000000000e+02 3.130973802115762084e+01
4.330000000000000000e+02 2.380283104542609962e+01
4.340000000000000000e+02 1.331028126737199102e+01
4.350000000000000000e+02 1.290949557353246213e+01
4.360000000000000000e+02 6.618012103276367242e+00
4.370000000000000000e+02 1.572086030491563236e+01
4.380000000000000000e+02 3.525112090437692558e+01
4.390000000000000000e+02 8.915188165906442919e+00
4.400000000000000000e+02 7.820025904584116283e+00
4.410000000000000000e+02 1.769747951462333191e+01
4.420000000000000000e+02 2.704085866030690966e+01
4.430000000000000000e+02 8.832612835718627764e+00
4.440000000000000000e+02 7.467242215308025344e-01
4.450000000000000000e+02 1.064462724968921847e+01
4.460000000000000000e+02 1.131186304915975249e+01
4.470000000000000000e+02 5.397994399501642171e-01
4.480000000000000000e+02 6.727106400539604181e+00
4.490000000000000000e+02 1.511407436838851126e+01
4.500000000000000000e+02 7.713020322339429136e+00
4.510000000000000000e+02 8.525743994398265357e+00
4.520000000000000000e+02 1.120250106202042240e+01
4.530000000000000000e+02 4.434832451358460048e+00
4.540000000000000000e+02 1.939164337274450389e+01
4.550000000000000000e+02 1.005228989421289043e+01
4.560000000000000000e+02 8.308685456544463221e+00
4.570000000000000000e+02 4.444565354283231784e+01
4.580000000000000000e+02 6.973675274424383019e+01
4.590000000000000000e+02 5.367654543248317367e+01
4.600000000000000000e+02 6.126434915785072377e+01
4.610000000000000000e+02 7.664965410910600951e+01
4.620000000000000000e+02 8.688890477494287268e+01
4.630000000000000000e+02 9.597960987349661366e+01
4.640000000000000000e+02 6.487443710640924621e+01
4.650000000000000000e+02 6.791516953329193029e+01
4.660000000000000000e+02 7.918394315221900115e+01
4.670000000000000000e+02 9.595849727027675158e+01
4.680000000000000000e+02 1.346570214685752092e+02
4.690000000000000000e+02 1.121024383036086363e+02
4.700000000000000000e+02 1.516873982783661745e+02
4.710000000000000000e+02 1.821979778054346184e+02
4.720000000000000000e+02 1.753492185815015603e+02
4.730000000000000000e+02 1.728715976975728381e+02
4.740000000000000000e+02 2.266734531424999091e+02
4.750000000000000000e+02 2.669599241236256262e+02
4.760000000000000000e+02 2.765436819124663543e+02
4.770000000000000000e+02 2.901223588052262699e+02
4.780000000000000000e+02 3.401091261356565951e+02
4.790000000000000000e+02 3.788075884671228550e+02
4.800000000000000000e+02 4.296294016179210757e+02
4.810000000000000000e+02 4.728347448039829715e+02
4.820000000000000000e+02 5.191427266334787873e+02
4.830000000000000000e+02 5.680440818502385127e+02
4.840000000000000000e+02 5.765490265297654560e+02
4.850000000000000000e+02 5.450532109935692233e+02
4.860000000000000000e+02 5.012018794026132014e+02
4.870000000000000000e+02 4.588841187305528138e+02
4.880000000000000000e+02 4.196315153080260529e+02
4.890000000000000000e+02 3.629344300290330807e+02
4.900000000000000000e+02 3.340500892138563245e+02
4.910000000000000000e+02 3.266204174237709594e+02
4.920000000000000000e+02 3.268995891953546220e+02
4.930000000000000000e+02 3.295874512964114160e+02
4.940000000000000000e+02 3.481011095001030640e+02
4.950000000000000000e+02 4.056388011613432241e+02
4.960000000000000000e+02 4.777045889856873941e+02
4.970000000000000000e+02 5.623928096453009857e+02
4.980000000000000000e+02 6.536307026959772202e+02
4.990000000000000000e+02 7.486580323999177153e+02
5.000000000000000000e+02 9.243033051649035770e+02
5.010000000000000000e+02 1.151039040448043806e+03
5.020000000000000000e+02 1.300893930512342877e+03
5.030000000000000000e+02 1.390961945239578199e+03
5.040000000000000000e+02 1.532058997096036592e+03
5.050000000000000000e+02 1.603685574984442837e+03
5.060000000000000000e+02 1.530944381456126848e+03
5.070000000000000000e+02 1.360521694461734114e+03
5.080000000000000000e+02 1.147586677452816048e+03
5.090000000000000000e+02 9.431712382078358132e+02
5.100000000000000000e+02 7.793700858743017079e+02
5.110000000000000000e+02 6.036036680356801298e+02
5.120000000000000000e+02 4.895542947106389988e+02
5.130000000000000000e+02 4.222840374611060383e+02
5.140000000000000000e+02 3.598418901680122985e+02
5.150000000000000000e+02 3.194040588259685478e+02
5.160000000000000000e+02 2.894464940481113331e+02
5.170000000000000000e+02 2.177536623522125865e+02
5.180000000000000000e+02 1.851593300560067519e+02
5.190000000000000000e+02 2.048881098714210509e+02
5.200000000000000000e+02 1.589836065131722478e+02
5.210000000000000000e+02 1.552160465048744413e+02
5.220000000000000000e+02 1.466218290750727533e+02
5.230000000000000000e+02 1.534101431238331656e+02
5.240000000000000000e+02 1.716370663970130295e+02
5.250000000000000000e+02 1.646479765657401799e+02
5.260000000000000000e+02 1.515164484339346416e+02
5.270000000000000000e+02 1.537784611076541523e+02
5.280000000000000000e+02 1.725461059116373690e+02
5.290000000000000000e+02 1.755677009749004753e+02
5.300000000000000000e+02 1.487355741962247748e+02
5.310000000000000000e+02 1.488983500518562835e+02
5.320000000000000000e+02 1.379632612943370589e+02
5.330000000000000000e+02 1.491467784484551373e+02
5.340000000000000000e+02 1.567982219041699921e+02
5.350000000000000000e+02 1.435924565235428361e+02
5.360000000000000000e+02 1.602416771001871041e+02
5.370000000000000000e+02 2.090017878033598890e+02
5.380000000000000000e+02 2.316690331466500368e+02
5.390000000000000000e+02 2.583895279402609049e+02
5.400000000000000000e+02 3.105838646546367272e+02
5.410000000000000000e+02 3.619325126322345341e+02
5.420000000000000000e+02 3.874214762339282743e+02
5.430000000000000000e+02 4.728885368388321808e+02
5.440000000000000000e+02 5.450434702343917479e+02
5.450000000000000000e+02 5.983575267938620073e+02
5.460000000000000000e+02 6.827993644057269194e+02
5.470000000000000000e+02 8.055655556316125967e+02
5.480000000000000000e+02 9.294052007465794532e+02
5.490000000000000000e+02 1.026810264053102173e+03
5.500000000000000000e+02 1.147125640945862415e+03
5.510000000000000000e+02 1.327985757154709972e+03
5.520000000000000000e+02 1.545095286040242627e+03
5.530000000000000000e+02 1.713317497822028599e+03
5.540000000000000000e+02 1.945804630029037071e+03
5.550000000000000000e+02 2.195526369010579856e+03
5.560000000000000000e+02 2.405755284588260565e+03
5.570000000000000000e+02 2.561553237710020312e+03
5.580000000000000000e+02 2.655392873677660191e+03
5.590000000000000000e+02 2.634054446172993721e+03
5.600000000000000000e+02 2.524123135034224106e+03
5.610000000000000000e+02 2.316043155361958725e+03
5.620000000000000000e+02 2.024910402820994932e+03
5.630000000000000000e+02 1.743929404480397352e+03
5.640000000000000000e+02 1.375761995644059652e+03
5.650000000000000000e+02 1.108128993569802105e+03
5.660000000000000000e+02 9.194541999377723869e+02
5.670000000000000000e+02 7.447217854179649521e+02
5.680000000000000000e+02 5.800135854387087875e+02
5.690000000000000000e+02 4.540731762289981361e+02
5.700000000000000000e+02 3.778905434971998147e+02
5.710000000000000000e+02 3.008343081725782326e+02
5.720000000000000000e+02 2.233558153080278998e+02
5.730000000000000000e+02 1.697962322339754451e+02
5.740000000000000000e+02 1.322094512756690392e+02
5.750000000000000000e+02 1.098406937564823096e+02
5.760000000000000000e+02 8.496176206388777530e+01
5.770000000000000000e+02 7.021252135034224295e+01
5.780000000000000000e+02 5.892695100809000053e+01
5.790000000000000000e+02 2.949126219249171044e+01
5.800000000000000000e+02 3.177853607550291315e+01
5.810000000000000000e+02 3.540270444721009113e+01
5.820000000000000000e+02 4.387061213189506503e+01
5.830000000000000000e+02 5.778353118855002180e+01
5.840000000000000000e+02 7.484691900435575462e+01
5.850000000000000000e+02 1.036067593363740116e+02
5.860000000000000000e+02 1.339839260526863995e+02
5.870000000000000000e+02 1.181247528935899851e+02
5.880000000000000000e+02 8.659339421401971038e+01
5.890000000000000000e+02 7.786081283136248032e+01
5.900000000000000000e+02 8.367225354698243223e+01
5.910000000000000000e+02 3.789635452094667301e+01
5.920000000000000000e+02 4.261192920348404556e+01
5.930000000000000000e+02 1.868921505082128576e+01
5.940000000000000000e+02 1.888145259643513540e+00
5.950000000000000000e+02 3.459089059945966227e+01
5.960000000000000000e+02 4.808299931549635886e+01
5.970000000000000000e+02 7.077905133789277770e+00
5.980000000000000000e+02 1.075821108857114794e+01
5.990000000000000000e+02 4.328809368388278678e+00
6.000000000000000000e+02 1.228306639576879178e+01
6.010000000000000000e+02 2.722259612321088085e+01
6.020000000000000000e+02 6.533695295166874750e+00
6.030000000000000000e+02 1.477938661169941881e+01
6.040000000000000000e+02 2.370647718730554487e+01
6.050000000000000000e+02 4.300674881145094020e+01
6.060000000000000000e+02 6.419785871810829292e+01
6.070000000000000000e+02 4.115358574777121703e+01
6.080000000000000000e+02 4.117656720389986447e+01
6.090000000000000000e+02 3.521990556108728043e+01
6.100000000000000000e+02 2.660713067206000204e+01
6.110000000000000000e+02 2.132929482372469110e+01
6.120000000000000000e+02 2.037556122796084779e+01
6.130000000000000000e+02 2.194253491184435489e+01
6.140000000000000000e+02 1.783870198672710217e+01
6.150000000000000000e+02 3.187288389545735257e+01
6.160000000000000000e+02 3.208193300352625243e+01
6.170000000000000000e+02 3.138040828494381884e+01
6.180000000000000000e+02 2.116713717693428620e+01
6.190000000000000000e+02 3.372812484131945610e+01
6.200000000000000000e+02 4.568252940686726049e+00
6.210000000000000000e+02 7.278775161377090797e+00
6.220000000000000000e+02 7.052958827007070219e+00
6.230000000000000000e+02 2.296121207840538148e+01
6.240000000000000000e+02 5.465363252022332574e+01
6.250000000000000000e+02 6.802891187098239811e+01
6.260000000000000000e+02 1.172914538270056539e+02
6.270000000000000000e+02 1.340642651524586597e+02
6.280000000000000000e+02 1.501388350964511176e+02
6.290000000000000000e+02 2.242606858120720688e+02
6.300000000000000000e+02 2.675253736569175089e+02
6.310000000000000000e+02 2.901310010993568653e+02
6.320000000000000000e+02 3.456907752540980141e+02
6.330000000000000000e+02 4.108193385812081715e+02
6.340000000000000000e+02 4.755958961626230916e+02
6.350000000000000000e+02 5.578185125077816338e+02
6.360000000000000000e+02 6.356492589711690471e+02
6.370000000000000000e+02 6.513208218996269352e+02
6.380000000000000000e+02 6.609136703795898029e+02
6.390000000000000000e+02 6.761523096038171161e+02
6.400000000000000000e+02 6.633358113023622309e+02
6.410000000000000000e+02 5.909981903754429595e+02
6.420000000000000000e+02 5.241284475420018225e+02
6.430000000000000000e+02 4.475474290750700561e+02
6.440000000000000000e+02 3.871399228375859707e+02
6.450000000000000000e+02 3.430294557560676481e+02
6.460000000000000000e+02 3.005868560763165647e+02
6.470000000000000000e+02 2.601954269446168837e+02
6.480000000000000000e+02 2.350250967226713783e+02
6.490000000000000000e+02 2.045985036499366174e+02
6.500000000000000000e+02 1.858001890894003338e+02
6.510000000000000000e+02 1.791007966397012012e+02
6.520000000000000000e+02 1.679295747355311619e+02
6.530000000000000000e+02 1.395175866417749546e+02
6.540000000000000000e+02 1.171440371084835164e+02
6.550000000000000000e+02 1.159526930304916590e+02
6.560000000000000000e+02 1.005542063845668252e+02
6.570000000000000000e+02 7.825155378759588132e+01
6.580000000000000000e+02 7.282566596141879245e+01
6.590000000000000000e+02 5.648364024268839501e+01
6.600000000000000000e+02 4.541146919103917412e+01
6.610000000000000000e+02 6.647607931964309103e+01
6.620000000000000000e+02 7.491603057664393361e+01
6.630000000000000000e+02 5.617720187720386349e+01
6.640000000000000000e+02 3.373692158680760400e+01
6.650000000000000000e+02 5.473991175860680736e-01
6.660000000000000000e+02 1.844158690728058048e+01
6.670000000000000000e+02 3.885429898153898165e+01
6.680000000000000000e+02 4.129468352965583477e+01
6.690000000000000000e+02 2.358906747977619034e+01
6.700000000000000000e+02 4.643195236880148791e+00
6.710000000000000000e+02 3.473224115512211085e+01
6.720000000000000000e+02 2.589550656710250820e+01
6.730000000000000000e+02 2.025169780958299981e+01
6.740000000000000000e+02 8.313611818747654425e+00
6.750000000000000000e+02 4.970255696950861335e+00
6.760000000000000000e+02 1.520829555113001774e+01
6.770000000000000000e+02 2.417708268409046823e+01
6.780000000000000000e+02 2.727150728064644536e+00
6.790000000000000000e+02 1.493117212196642463e+01
6.800000000000000000e+02 5.732826871603060148e+00
6.810000000000000000e+02 3.304841014519848841e+01
6.820000000000000000e+02 4.249704937149947881e+01
6.830000000000000000e+02 2.209643854387088879e+01
6.840000000000000000e+02 1.421065729724119819e+01
6.850000000000000000e+02 3.221139204314361848e+01
6.860000000000000000e+02 3.134377213856107147e+01
6.870000000000000000e+02 9.481984434350099633e+00
6.880000000000000000e+02 1.057710035469801468e+01
6.890000000000000000e+02 1.940596526446779535e+01
6.900000000000000000e+02 2.782505313628012011e+00
6.910000000000000000e+02 5.139781934881272107e+00
6.920000000000000000e+02 2.370975031113861320e+01
6.930000000000000000e+02 3.082035718108291533e+01
6.940000000000000000e+02 1.511177113853177367e+01
6.950000000000000000e+02 6.993898911636576621e+00
6.960000000000000000e+02 1.417605413192296737e+01
6.970000000000000000e+02 2.783481201990820253e+01
6.980000000000000000e+02 3.403350288736772455e+01
6.990000000000000000e+02 2.760766622899779321e+01
7.000000000000000000e+02 1.668454874740800875e+01
7.010000000000000000e+02 1.350176275668955839e+01
7.020000000000000000e+02 6.503388246422204588e+00
7.030000000000000000e+02 2.874762690169934842e+01
7.040000000000000000e+02 4.654444003526239726e+01
7.050000000000000000e+02 4.986362031113799276e+01
7.060000000000000000e+02 5.840446718730588316e+01
7.070000000000000000e+02 3.746045341837783837e+01
7.080000000000000000e+02 6.565300768305291967e+01
7.090000000000000000e+02 5.600603781995411623e+01
7.100000000000000000e+02 3.491751228375853344e+01
7.110000000000000000e+02 4.827685914747993223e+01
7.120000000000000000e+02 7.425714071561927199e+01
7.130000000000000000e+02 5.769710722879018761e+01
7.140000000000000000e+02 4.947406927815800515e+01
7.150000000000000000e+02 5.953017555071642875e+01
7.160000000000000000e+02 7.951691821406457450e+01
7.170000000000000000e+02 8.915596879510519557e+01
7.180000000000000000e+02 7.566845359054205744e+01
7.190000000000000000e+02 6.451023529558148084e+01
7.200000000000000000e+02 7.727128110742472700e+01
7.210000000000000000e+02 7.523344510682444763e+01
7.220000000000000000e+02 9.022471148931686002e+01
7.230000000000000000e+02 8.309913295935393762e+01
7.240000000000000000e+02 5.061834386434348687e+01
7.250000000000000000e+02 1.018853479049988948e+02
7.260000000000000000e+02 1.068274741600994702e+02
7.270000000000000000e+02 1.091513431860611121e+02
7.280000000000000000e+02 1.166836279402615304e+02
7.290000000000000000e+02 1.085458028826204497e+02
7.300000000000000000e+02 8.432501839037455227e+01
7.310000000000000000e+02 7.453903559220056252e+01
7.320000000000000000e+02 7.247546861439469978e+01
7.330000000000000000e+02 9.927269847542105197e+01
7.340000000000000000e+02 1.123942882206553264e+02
7.350000000000000000e+02 1.161194024268821323e+02
7.360000000000000000e+02 1.136505824725166320e+02
7.370000000000000000e+02 9.782020666321020030e+01
7.380000000000000000e+02 1.065364907902924045e+02
7.390000000000000000e+02 1.161673052271312514e+02
7.400000000000000000e+02 1.170974089589381748e+02
7.410000000000000000e+02 1.126372318813523350e+02
7.420000000000000000e+02 1.098051195395146067e+02
7.430000000000000000e+02 1.104642700331812932e+02
7.440000000000000000e+02 1.152639413814564477e+02
7.450000000000000000e+02 1.201803151835713379e+02
7.460000000000000000e+02 1.150165378759592159e+02
7.470000000000000000e+02 1.135580803360303008e+02
7.480000000000000000e+02 1.116314993362375674e+02
7.490000000000000000e+02 1.177134331881350278e+02
7.500000000000000000e+02 1.154371957062849248e+02
7.510000000000000000e+02 1.204636571250778303e+02
7.520000000000000000e+02 1.184853592408213387e+02
7.530000000000000000e+02 1.098531116573324766e+02
7.540000000000000000e+02 1.130962894005394332e+02
7.550000000000000000e+02 1.155249516905206519e+02
7.560000000000000000e+02 1.044482413192283730e+02
7.570000000000000000e+02 1.068013623107239312e+02
7.580000000000000000e+02 1.020328128811448494e+02
7.590000000000000000e+02 9.555117283343693657e+01
7.600000000000000000e+02 8.801677314599744761e+01
7.610000000000000000e+02 8.371014109520844215e+01
7.620000000000000000e+02 8.954908094378779992e+01
7.630000000000000000e+02 1.043588311903773729e+02
7.640000000000000000e+02 8.535571724123595061e+01
7.650000000000000000e+02 8.388301001244559529e+01
7.660000000000000000e+02 8.865396929282456995e+01
7.670000000000000000e+02 1.021396086766234106e+02
7.680000000000000000e+02 1.104573593652769006e+02
7.690000000000000000e+02 7.725714768145951439e+01
7.700000000000000000e+02 5.621529367766019902e+01
7.710000000000000000e+02 6.935731302841735157e+01
7.720000000000000000e+02 6.365191646131488312e+01
7.730000000000000000e+02 5.869495454055177674e+01
7.740000000000000000e+02 5.308490043559451266e+01
7.750000000000000000e+02 3.319534984443073711e+01
7.760000000000000000e+02 5.435123965152457259e+01
7.770000000000000000e+02 7.076030424600692470e+01
7.780000000000000000e+02 8.257772803360302305e+01
7.790000000000000000e+02 5.799876967019310570e+01
7.800000000000000000e+02 3.273827673926574988e+01
7.810000000000000000e+02 3.147954226923873833e+01
7.820000000000000000e+02 2.477785900850448897e+01
7.830000000000000000e+02 3.103368240199114680e+01
7.840000000000000000e+02 4.020149039825759729e+01
7.850000000000000000e+02 2.815036440365075876e+01
7.860000000000000000e+02 2.241653348403133705e+01
7.870000000000000000e+02 3.712917272764972410e+01
7.880000000000000000e+02 4.313098728064656484e+01
7.890000000000000000e+02 8.609295508088258941e+00
7.900000000000000000e+02 3.492694373159130006e+00
7.910000000000000000e+02 8.694136243517679219e+00
7.920000000000000000e+02 6.918763021153275794e+00
7.930000000000000000e+02 1.100599911014282384e+01
7.940000000000000000e+02 1.781953649450341004e+01
7.950000000000000000e+02 1.428423656159483635e+00
7.960000000000000000e+02 8.551720814561152295e+00
7.970000000000000000e+02 1.550153828873666306e+01
7.980000000000000000e+02 6.994872687616504159e+00
7.990000000000000000e+02 1.476492060360931902e+01
8.000000000000000000e+02 4.138189000829816777e+00
8.010000000000000000e+02 1.433048487035847307e+00
8.020000000000000000e+02 2.184448555071574205e+00
8.030000000000000000e+02 2.411477552375036915e+00
8.040000000000000000e+02 6.861014437875892824e+00
8.050000000000000000e+02 2.945826725575559912e+00
8.060000000000000000e+02 3.514630500933296986e+00
8.070000000000000000e+02 1.482795791661403406e+01
8.080000000000000000e+02 3.715632526446781014e+01
8.090000000000000000e+02 2.637365843393506637e+01
8.100000000000000000e+02 5.759064584111083462e+01
8.110000000000000000e+02 3.207026153080431641e+01
8.120000000000000000e+02 2.201321961426751628e+01
8.130000000000000000e+02 3.382710033602969446e+01
8.140000000000000000e+02 4.032412148931758367e+01
8.150000000000000000e+02 2.430884326669485418e+01
8.160000000000000000e+02 2.409595912258877348e+01
8.170000000000000000e+02 1.535724869155765759e+01
8.180000000000000000e+02 1.572485873952755497e+01
8.190000000000000000e+02 1.359116828873701621e+01
8.200000000000000000e+02 2.272364324828809856e+01
8.210000000000000000e+02 5.226042371630298611e+00
8.220000000000000000e+02 1.317781353889263762e+01
8.230000000000000000e+02 2.779266481957742485e+01
8.240000000000000000e+02 1.488079446795184424e+01
8.250000000000000000e+02 1.408905691350361700e+01
8.260000000000000000e+02 1.245344677245401854e+01
8.270000000000000000e+02 2.026894087533556643e+01
8.280000000000000000e+02 4.253934247044192318e+01
8.290000000000000000e+02 3.920350895457400497e+01
8.300000000000000000e+02 2.337395800871246010e+01
8.310000000000000000e+02 4.761336253889020043e+00
8.320000000000000000e+02 5.073764685957245391e+00
8.330000000000000000e+02 1.386010028002487893e+01
8.340000000000000000e+02 1.196880421696745600e+01
8.350000000000000000e+02 1.783527170088928138e+00
8.360000000000000000e+02 1.946335283966016050e+01
8.370000000000000000e+02 3.425872462974508892e+01
8.380000000000000000e+02 4.668359593652876072e+01
8.390000000000000000e+02 8.048625653184085138e+01
8.400000000000000000e+02 9.354076865201142255e+01
8.410000000000000000e+02 9.884618833022314277e+01
8.420000000000000000e+02 1.333297420659622503e+02
8.430000000000000000e+02 1.741175403567000330e+02
8.440000000000000000e+02 2.473982321924890186e+02
8.450000000000000000e+02 3.054567376477920106e+02
8.460000000000000000e+02 3.570374113645804641e+02
8.470000000000000000e+02 4.052204223397631040e+02
8.480000000000000000e+02 4.703361537440355278e+02
8.490000000000000000e+02 5.503209771878894117e+02
8.500000000000000000e+02 6.021368346401169447e+02
8.510000000000000000e+02 7.113924724331063771e+02
8.520000000000000000e+02 8.178366954573776866e+02
8.530000000000000000e+02 9.568562707944440717e+02
8.540000000000000000e+02 1.104612436838831627e+03
8.550000000000000000e+02 1.216716938394525641e+03
8.560000000000000000e+02 1.318009675171129174e+03
8.570000000000000000e+02 1.491031052686165594e+03
8.580000000000000000e+02 1.597542490354700249e+03
8.590000000000000000e+02 1.699929377722465460e+03
8.600000000000000000e+02 1.760101863098942204e+03
8.610000000000000000e+02 1.778704969508400609e+03
8.620000000000000000e+02 1.773564748392449701e+03
8.630000000000000000e+02 1.728794119269861312e+03
8.640000000000000000e+02 1.619756396390789632e+03
8.650000000000000000e+02 1.516497591785935811e+03
8.660000000000000000e+02 1.362350803815844529e+03
8.670000000000000000e+02 1.239401065753991816e+03
8.680000000000000000e+02 1.140963008089607911e+03
8.690000000000000000e+02 1.033511761592700395e+03
8.700000000000000000e+02 9.241138999377718619e+02
8.710000000000000000e+02 8.509820615639912376e+02
8.720000000000000000e+02 7.790574086478640083e+02
8.730000000000000000e+02 7.382650271105578668e+02
8.740000000000000000e+02 6.778115811449912371e+02
8.750000000000000000e+02 6.319005805474906765e+02
8.760000000000000000e+02 6.109670557145821022e+02
8.770000000000000000e+02 6.026972110350549201e+02
8.780000000000000000e+02 6.122402974284530046e+02
8.790000000000000000e+02 6.218707339763534492e+02
8.800000000000000000e+02 6.280394432275460304e+02
8.810000000000000000e+02 6.555189826799419279e+02
8.820000000000000000e+02 6.905685043974275459e+02
8.830000000000000000e+02 7.381819448662115519e+02
8.840000000000000000e+02 8.012874641568135985e+02
8.850000000000000000e+02 8.628546561916606379e+02
8.860000000000000000e+02 9.285521684920120151e+02
8.870000000000000000e+02 1.033397455714581156e+03
8.880000000000000000e+02 1.106977635345362842e+03
8.890000000000000000e+02 1.196520302426879425e+03
8.900000000000000000e+02 1.305726902509851243e+03
8.910000000000000000e+02 1.431343197469401730e+03
8.920000000000000000e+02 1.590280132310238969e+03
8.930000000000000000e+02 1.767203326695705300e+03
8.940000000000000000e+02 1.888863216137729751e+03
8.950000000000000000e+02 2.043573390087095504e+03
8.960000000000000000e+02 2.240559212196642420e+03
8.970000000000000000e+02 2.435192367143748470e+03
8.980000000000000000e+02 2.618736804604850931e+03
8.990000000000000000e+02 2.840036828873671311e+03
9.000000000000000000e+02 3.134769288736787075e+03
9.010000000000000000e+02 3.465933717278566291e+03
9.020000000000000000e+02 3.859464705662713641e+03
9.030000000000000000e+02 4.338420859780109822e+03
9.040000000000000000e+02 4.942916003318799085e+03
9.050000000000000000e+02 5.653480450114060659e+03
9.060000000000000000e+02 6.454571998340906248e+03
9.070000000000000000e+02 7.376384710640933008e+03
9.080000000000000000e+02 8.444972155569366805e+03
9.090000000000000000e+02 9.675467490460379850e+03
9.100000000000000000e+02 1.102490163244141513e+04
9.110000000000000000e+02 1.246436154947107570e+04
9.120000000000000000e+02 1.396808622148480390e+04
9.130000000000000000e+02 1.553007993984655332e+04
9.140000000000000000e+02 1.705031202447629039e+04
9.150000000000000000e+02 1.834464945665694540e+04
9.160000000000000000e+02 1.948494537647787001e+04
9.170000000000000000e+02 2.006212986309892221e+04
9.180000000000000000e+02 2.025178593944420936e+04
9.190000000000000000e+02 1.966469166977809800e+04
9.200000000000000000e+02 1.854641725575612145e+04
9.210000000000000000e+02 1.711103404480401514e+04
9.220000000000000000e+02 1.524546106824313938e+04
9.230000000000000000e+02 1.337982828458829863e+04
9.240000000000000000e+02 1.152798895249947600e+04
9.250000000000000000e+02 9.883529040448036540e+03
9.260000000000000000e+02 8.504500064509436925e+03
9.270000000000000000e+02 7.300707879900407534e+03
9.280000000000000000e+02 6.254691990250962590e+03
9.290000000000000000e+02 5.393239449284363218e+03
9.300000000000000000e+02 4.684137627255724510e+03
9.310000000000000000e+02 4.038207950840047033e+03
9.320000000000000000e+02 3.500247336237272975e+03
9.330000000000000000e+02 3.044779504044822716e+03
9.340000000000000000e+02 2.670392393279418684e+03
9.350000000000000000e+02 2.352375476565726331e+03
9.360000000000000000e+02 2.060750875337074376e+03
9.370000000000000000e+02 1.810975669985484956e+03
9.380000000000000000e+02 1.624851320613857069e+03
9.390000000000000000e+02 1.384393472930928056e+03
9.400000000000000000e+02 1.220439162829289216e+03
9.410000000000000000e+02 1.076011963085855086e+03
9.420000000000000000e+02 9.398459828251377530e+02
9.430000000000000000e+02 8.316541269446158822e+02
9.440000000000000000e+02 7.327237676482745883e+02
9.450000000000000000e+02 6.226484410288281879e+02
9.460000000000000000e+02 5.449917173822846053e+02
9.470000000000000000e+02 5.087126275668910012e+02
9.480000000000000000e+02 4.188595337896670117e+02
9.490000000000000000e+02 3.655028906036081935e+02
9.500000000000000000e+02 3.209140730138991557e+02
9.510000000000000000e+02 2.875473320680357574e+02
9.520000000000000000e+02 2.560848380211554058e+02
9.530000000000000000e+02 1.931809809583077708e+02
9.540000000000000000e+02 1.769438700891932115e+02
9.550000000000000000e+02 1.664389265505083983e+02
9.560000000000000000e+02 1.272001584526026647e+02
9.570000000000000000e+02 1.036655927193527020e+02
9.580000000000000000e+02 8.454083615225034976e+01
9.590000000000000000e+02 8.783536749637070784e+01
9.600000000000000000e+02 9.324601010993440298e+01
9.610000000000000000e+02 4.774694967648242283e+01
9.620000000000000000e+02 3.399578680771591621e+01
9.630000000000000000e+02 2.665159953329188980e+01
9.640000000000000000e+02 3.747625955205332104e+01
9.650000000000000000e+02 4.157268487450726724e+01
9.660000000000000000e+02 3.347957790914725251e+01
9.670000000000000000e+02 1.451962079344612633e+01
9.680000000000000000e+02 5.236582911428967257e+00
9.690000000000000000e+02 1.410253082348073228e+01
9.700000000000000000e+02 2.261043507258406038e+01
9.710000000000000000e+02 1.388496301182321879e+01
9.720000000000000000e+02 8.695693049574762412e+00
9.730000000000000000e+02 1.148838659406792218e+01
9.740000000000000000e+02 2.600341023439454613e+00
9.750000000000000000e+02 9.415048596141740944e+00
9.760000000000000000e+02 3.720872467330275768e+00
9.770000000000000000e+02 2.663937055382898045e+00
9.780000000000000000e+02 1.545176865380624243e+01
9.790000000000000000e+02 3.578290575606938528e+00
9.800000000000000000e+02 1.203062241070336746e+01
9.810000000000000000e+02 3.142581167185228352e+01
9.820000000000000000e+02 3.364614751711254570e+01
9.830000000000000000e+02 3.496910771831573328e+01
9.840000000000000000e+02 3.173112044181714708e+01
9.850000000000000000e+02 1.385060172370878462e+01
9.860000000000000000e+02 1.499151235477187427e+01
9.870000000000000000e+02 8.606852194772891096e+00
9.880000000000000000e+02 8.572027930927204054e+00
9.890000000000000000e+02 1.088910049605902053e+01
9.900000000000000000e+02 1.920202963493063208e+01
9.910000000000000000e+02 2.781237772246471707e+01
9.920000000000000000e+02 3.412181827042791582e+01
9.930000000000000000e+02 1.316737489732425992e+01
9.940000000000000000e+02 1.774453674548840709e+01
9.950000000000000000e+02 1.789529981750309418e+01
9.960000000000000000e+02 2.392523981539086719e+01
9.970000000000000000e+02 2.100246907280666875e+01
9.980000000000000000e+02 1.913312119452508142e+01
9.990000000000000000e+02 2.006703375025925951e+01
1.000000000000000000e+03 2.165666701721629650e+01
1.001000000000000000e+03 1.988643601659709148e+01
1.002000000000000000e+03 9.418828053830203828e+00
1.003000000000000000e+03 1.811225807053777448e+00
1.004000000000000000e+03 1.065159700000030440e+01
1.005000000000000000e+03 2.079600344398315315e+01
1.006000000000000000e+03 3.365000549792578255e+01
1.007000000000000000e+03 3.648077821576760726e+01
1.008000000000000000e+03 4.530125556016590593e+01
1.009000000000000000e+03 7.147929692946095770e+01
1.010000000000000000e+03 8.843673319502069319e+01
1.011000000000000000e+03 8.396286915113866200e+01
1.012000000000000000e+03 9.881275643153506394e+01
1.013000000000000000e+03 1.514558470954385712e+02
1.014000000000000000e+03 1.820271524896265305e+02
1.015000000000000000e+03 1.979406331950204390e+02
1.016000000000000000e+03 1.973077095435681372e+02
1.017000000000000000e+03 2.054485427385882872e+02
1.018000000000000000e+03 2.388695788381749594e+02
1.019000000000000000e+03 2.559313819875775096e+02
1.020000000000000000e+03 2.752787066390043833e+02
1.021000000000000000e+03 3.094651582987556822e+02
1.022000000000000000e+03 3.491371914937759016e+02
1.023000000000000000e+03 3.809073093167711477e+02
1.024000000000000000e+03 3.830420746887968448e+02
1.025000000000000000e+03 3.928119883817441291e+02
1.026000000000000000e+03 4.239224800829906599e+02
1.027000000000000000e+03 4.522251454356832028e+02
1.028000000000000000e+03 4.921316595435687873e+02
1.029000000000000000e+03 5.047846896265588725e+02
1.030000000000000000e+03 5.469207404564278932e+02
1.031000000000000000e+03 5.896968120082810856e+02
1.032000000000000000e+03 6.311716975103761342e+02
1.033000000000000000e+03 6.569320049792534064e+02
1.034000000000000000e+03 6.857796987551847678e+02
1.035000000000000000e+03 7.342187261410797419e+02
1.036000000000000000e+03 7.852203628630763887e+02
1.037000000000000000e+03 8.446984780082952966e+02
1.038000000000000000e+03 8.960016564315351388e+02
1.039000000000000000e+03 9.677593145228257754e+02
1.040000000000000000e+03 1.018581968879664487e+03
1.041000000000000000e+03 1.082043493775931893e+03
1.042000000000000000e+03 1.143133954356848108e+03
1.043000000000000000e+03 1.177997896265560939e+03
1.044000000000000000e+03 1.201185765560164100e+03
1.045000000000000000e+03 1.232330041493776207e+03
1.046000000000000000e+03 1.248753674273860270e+03
1.047000000000000000e+03 1.267027352697094102e+03
1.048000000000000000e+03 1.277643378881987474e+03
1.049000000000000000e+03 1.277920759336098854e+03
1.050000000000000000e+03 1.204739016597516638e+03
1.051000000000000000e+03 1.132727556016599920e+03
1.052000000000000000e+03 1.074393084886126417e+03
1.053000000000000000e+03 9.880974892116108776e+02
1.054000000000000000e+03 9.090895350622467959e+02
1.055000000000000000e+03 8.321387093361008738e+02
1.056000000000000000e+03 7.578535676348486732e+02
1.057000000000000000e+03 6.516778688796797496e+02
1.058000000000000000e+03 5.377432365145269841e+02
1.059000000000000000e+03 4.696364726141071628e+02
1.060000000000000000e+03 4.232195981366469368e+02
1.061000000000000000e+03 3.679824354771819799e+02
1.062000000000000000e+03 3.120394823651454317e+02
1.063000000000000000e+03 2.674341188796665847e+02
1.064000000000000000e+03 2.510572004149390466e+02
1.065000000000000000e+03 2.037183456431548905e+02
1.066000000000000000e+03 1.595257983402477464e+02
1.067000000000000000e+03 1.709269311203350412e+02
1.068000000000000000e+03 1.525657443983430994e+02
1.069000000000000000e+03 1.235714767634853217e+02
1.070000000000000000e+03 1.110625707468870900e+02
1.071000000000000000e+03 9.958923736514628899e+01
1.072000000000000000e+03 9.291672103734435950e+01
1.073000000000000000e+03 9.243306145228164894e+01
1.074000000000000000e+03 8.026666663900417120e+01
1.075000000000000000e+03 9.076935937759284911e+01
1.076000000000000000e+03 6.732607448132770855e+01
1.077000000000000000e+03 6.746703080745520253e+01
1.078000000000000000e+03 6.716461912863179862e+01
1.079000000000000000e+03 5.032512651452318408e+01
1.080000000000000000e+03 5.505435074688885777e+01
1.081000000000000000e+03 7.862839093167399085e+01
1.082000000000000000e+03 4.981697182572683147e+01
1.083000000000000000e+03 3.646820983402468386e+01
1.084000000000000000e+03 2.498363946058014307e+01
1.085000000000000000e+03 1.725198339544529347e+01
1.086000000000000000e+03 2.337001406638998091e+01
1.087000000000000000e+03 4.079135877593473936e+01
1.088000000000000000e+03 3.180552524896297584e+01
1.089000000000000000e+03 2.513017463767997128e+01
1.090000000000000000e+03 4.605939589211604357e+01
1.091000000000000000e+03 3.173717684647220594e+01
1.092000000000000000e+03 3.540233161825743480e+01
1.093000000000000000e+03 1.675398091286333369e+01
1.094000000000000000e+03 2.179543757261477666e+01
1.095000000000000000e+03 6.110656624482476040e+00
1.096000000000000000e+03 1.007015925311164217e+01
1.097000000000000000e+03 9.008832261410393727e+00
1.098000000000000000e+03 3.826584012448581262e+00
1.099000000000000000e+03 1.619081854771705764e+01
1.100000000000000000e+03 3.492352419087143289e+01
1.101000000000000000e+03 5.497982676348534881e+01
1.102000000000000000e+03 3.206329271784467494e+01
1.103000000000000000e+03 6.057970921162249667e+00
1.104000000000000000e+03 3.751692153527097062e+00
1.105000000000000000e+03 8.897991340250825942e+00
1.106000000000000000e+03 1.317009796748902062e+00
1.107000000000000000e+03 1.595607510373466909e+01
1.108000000000000000e+03 2.050217398340227604e+01
1.109000000000000000e+03 1.947292614107847442e+01
1.110000000000000000e+03 2.138852391304353873e+01
1.111000000000000000e+03 1.232570654771622287e+01
1.112000000000000000e+03 1.075038694605845357e+01
1.113000000000000000e+03 1.043797894190990760e+01
1.114000000000000000e+03 7.955984434782545911e+00
1.115000000000000000e+03 9.278444091287669337e+00
1.116000000000000000e+03 7.539860829874440284e+00
1.117000000000000000e+03 1.305483863070529260e+01
1.118000000000000000e+03 1.034617540372657629e+01
1.119000000000000000e+03 1.715402331950183168e+01
1.120000000000000000e+03 1.705956427385864416e+01
1.121000000000000000e+03 9.808526089211715870e+00
1.122000000000000000e+03 1.361831289855125604e+01
1.123000000000000000e+03 1.637732688796821279e+01
1.124000000000000000e+03 6.105251784232367029e+00
1.125000000000000000e+03 1.976184580912927302e+01
1.126000000000000000e+03 1.076991668049802442e+01
1.127000000000000000e+03 1.266515013070576856e+01
1.128000000000000000e+03 6.127465730291117296e+00
1.129000000000000000e+03 2.288971595435874917e+01
1.130000000000000000e+03 3.004855497925367303e+01
1.131000000000000000e+03 9.773029244813017158e+00
1.132000000000000000e+03 6.242210634854894913e+00
1.133000000000000000e+03 1.237980719087080672e+01
1.134000000000000000e+03 3.406921721991628971e+01
1.135000000000000000e+03 1.763234771784148336e+01
1.136000000000000000e+03 1.714242970954499867e+01
1.137000000000000000e+03 1.849637695020831529e+01
1.138000000000000000e+03 1.081675610165981993e+01
1.139000000000000000e+03 1.850886000000041065e+01
1.140000000000000000e+03 2.148146842323656003e+01
1.141000000000000000e+03 1.935005697095439459e+01
1.142000000000000000e+03 1.489778589211581483e+01
1.143000000000000000e+03 2.691985958592159722e+00
1.144000000000000000e+03 1.752926315352588249e+00
1.145000000000000000e+03 4.160833813278242310e+00
1.146000000000000000e+03 7.350568651453359692e+00
1.147000000000000000e+03 2.684711279502985803e+01
1.148000000000000000e+03 3.091891000000000034e+01
1.149000000000000000e+03 2.356762082987546947e+01
1.150000000000000000e+03 2.169501751037401149e+01
1.151000000000000000e+03 2.106253608695585910e+01
1.152000000000000000e+03 3.706829879668087813e+01
1.153000000000000000e+03 4.039089919087127356e+01
1.154000000000000000e+03 2.815961663900498024e+01
1.155000000000000000e+03 2.201297136929458986e+01
1.156000000000000000e+03 4.403871464730532637e+01
1.157000000000000000e+03 6.053791406638968198e+01
1.158000000000000000e+03 4.625148630705480457e+01
1.159000000000000000e+03 3.506815925311223481e+01
1.160000000000000000e+03 4.049632031120376752e+01
1.161000000000000000e+03 2.822488373444029364e+01
1.162000000000000000e+03 3.537668726141088626e+01
1.163000000000000000e+03 4.745613763485444281e+01
1.164000000000000000e+03 3.925802423236575578e+01
1.165000000000000000e+03 3.427764157676347878e+01
1.166000000000000000e+03 4.060016224066413315e+01
1.167000000000000000e+03 3.705934626556005895e+01
1.168000000000000000e+03 4.154824459627246824e+01
1.169000000000000000e+03 4.483330479253084633e+01
1.170000000000000000e+03 4.872684987552089808e+01
1.171000000000000000e+03 6.254776987551903034e+01
1.172000000000000000e+03 5.720384380952373249e+01
1.173000000000000000e+03 7.880251331950277915e+01
1.174000000000000000e+03 4.217124834025233326e+01
1.175000000000000000e+03 4.542245423236403923e+01
1.176000000000000000e+03 7.229582479253110705e+01
1.177000000000000000e+03 5.616284732365000565e+01
1.178000000000000000e+03 5.504413794605687826e+01
1.179000000000000000e+03 6.565076468879667004e+01
1.180000000000000000e+03 6.066923873705923853e+01
1.181000000000000000e+03 5.704388622406555953e+01
1.182000000000000000e+03 6.614916228215750493e+01
1.183000000000000000e+03 7.394747107883856074e+01
1.184000000000000000e+03 8.691580863070588236e+01
1.185000000000000000e+03 8.116506464730349535e+01
1.186000000000000000e+03 6.687921726141071588e+01
1.187000000000000000e+03 7.033801991701295719e+01
1.188000000000000000e+03 7.106427273858946592e+01
1.189000000000000000e+03 6.588645352697112401e+01
1.190000000000000000e+03 4.851728207468799781e+01
1.191000000000000000e+03 5.053188286307245392e+01
1.192000000000000000e+03 7.886874286306898796e+01
1.193000000000000000e+03 7.975897367219837975e+01
1.194000000000000000e+03 5.447326595435777108e+01
1.195000000000000000e+03 6.906533730290480833e+01
1.196000000000000000e+03 5.288771209543614304e+01
1.197000000000000000e+03 4.196297269151133946e+01
1.198000000000000000e+03 5.551802211618189631e+01
1.199000000000000000e+03 4.327948116182678007e+01
1.200000000000000000e+03 5.310017668049823669e+01
1.201000000000000000e+03 5.718488043478170368e+01
1.202000000000000000e+03 5.066055244813284020e+01
1.203000000000000000e+03 5.238715962655597025e+01
1.204000000000000000e+03 4.938813217842212566e+01
1.205000000000000000e+03 4.228945331949874742e+01
1.206000000000000000e+03 6.133994854771860616e+01
1.207000000000000000e+03 3.355909103734427390e+01
1.208000000000000000e+03 4.350245858921285702e+01
1.209000000000000000e+03 4.983559960662547894e+01
1.210000000000000000e+03 3.444346309128621897e+01
1.211000000000000000e+03 2.395625570539388605e+01
1.212000000000000000e+03 2.255928288381739222e+01
1.213000000000000000e+03 2.894080448132734773e+01
1.214000000000000000e+03 3.536423390041507986e+01
1.215000000000000000e+03 4.283351103734564447e+01
1.216000000000000000e+03 4.600358394191022171e+01
1.217000000000000000e+03 2.718276799171842129e+01
1.218000000000000000e+03 2.966783421161750312e+01
1.219000000000000000e+03 2.033663080912881327e+01
1.220000000000000000e+03 2.323640587136908309e+01
1.221000000000000000e+03 3.144957549792549045e+01
1.222000000000000000e+03 3.027345265560160570e+01
1.223000000000000000e+03 1.407495070539511772e+01
1.224000000000000000e+03 1.680527477178442197e+01
1.225000000000000000e+03 1.997684518672142673e+01
1.226000000000000000e+03 8.340331055901046398e+00
1.227000000000000000e+03 9.285954948132634001e+00
1.228000000000000000e+03 1.659360396265530113e+01
1.229000000000000000e+03 1.377495873443767449e+00
1.230000000000000000e+03 2.586262195019936261e+00
1.231000000000000000e+03 1.890151535269672323e+01
1.232000000000000000e+03 2.287058365145968608e+00
1.233000000000000000e+03 3.477047336099277075e+00
1.234000000000000000e+03 2.197326523809505971e+01
1.235000000000000000e+03 1.916386340248868692e+01
1.236000000000000000e+03 1.113178489626555034e+01
1.237000000000000000e+03 8.492835174273981380e+00
1.238000000000000000e+03 5.382887105589911236e+00
1.239000000000000000e+03 9.137133153528042229e+00
1.240000000000000000e+03 1.905143763485426689e+01
1.241000000000000000e+03 1.472911149377599926e+01
1.242000000000000000e+03 4.865429663900775026e+00
1.243000000000000000e+03 1.059247860995798263e+01
1.244000000000000000e+03 1.171108891286349873e+01
1.245000000000000000e+03 4.559553999999979013e+00
1.246000000000000000e+03 7.511966452282681672e+00
1.247000000000000000e+03 1.615373983402486502e+01
1.248000000000000000e+03 1.248952402489620894e+01
1.249000000000000000e+03 1.493738829875588614e+01
1.250000000000000000e+03 3.165202991701024260e+01
1.251000000000000000e+03 2.388211124481380665e+01
1.252000000000000000e+03 1.167861555601747980e+01
1.253000000000000000e+03 3.641665101659646098e+01
1.254000000000000000e+03 4.084312468879645053e+01
1.255000000000000000e+03 4.413367540372667008e+01
1.256000000000000000e+03 3.018031526970954914e+01
1.257000000000000000e+03 3.076977647303026586e+01
1.258000000000000000e+03 1.050675229875546535e+01
1.259000000000000000e+03 2.212920360248914697e+00
1.260000000000000000e+03 2.712191773858641497e+01
1.261000000000000000e+03 3.347214728215816137e+01
1.262000000000000000e+03 3.435829661825743386e+01
1.263000000000000000e+03 3.478273095238135681e+01
1.264000000000000000e+03 3.349202730290396346e+01
1.265000000000000000e+03 3.471918892116188005e+01
1.266000000000000000e+03 3.634100713693045748e+01
1.267000000000000000e+03 5.423408128364353331e+01
1.268000000000000000e+03 3.801319398340293532e+01
1.269000000000000000e+03 2.754991773858888848e+01
1.270000000000000000e+03 1.055558344398459347e+01
1.271000000000000000e+03 3.027592639751521375e+01
1.272000000000000000e+03 2.066164983402480004e+01
1.273000000000000000e+03 1.867069580912886195e+01
1.274000000000000000e+03 1.382893232365219482e+01
1.275000000000000000e+03 1.642198282157628597e+01
1.276000000000000000e+03 3.654734039419216174e+01
1.277000000000000000e+03 2.431231649377704684e+01
1.278000000000000000e+03 7.897564518671252642e+00
1.279000000000000000e+03 3.636493970954359156e+01
1.280000000000000000e+03 4.880026265560226761e+01
1.281000000000000000e+03 5.108669120331938984e+01
1.282000000000000000e+03 5.410460871369307512e+01
1.283000000000000000e+03 2.646009958506062576e-01
1.284000000000000000e+03 0.000000000000000000e+00
1.285000000000000000e+03 0.000000000000000000e+00
1.286000000000000000e+03 0.000000000000000000e+00
1.287000000000000000e+03 0.000000000000000000e+00
1.288000000000000000e+03 0.000000000000000000e+00
1.289000000000000000e+03 0.000000000000000000e+00
1.290000000000000000e+03 0.000000000000000000e+00
1.291000000000000000e+03 0.000000000000000000e+00
1.292000000000000000e+03 0.000000000000000000e+00
1.293000000000000000e+03 0.000000000000000000e+00
1.294000000000000000e+03 0.000000000000000000e+00
1.295000000000000000e+03 0.000000000000000000e+00
1.296000000000000000e+03 0.000000000000000000e+00
1.297000000000000000e+03 0.000000000000000000e+00
1.298000000000000000e+03 0.000000000000000000e+00
1.299000000000000000e+03 0.000000000000000000e+00
1.300000000000000000e+03 0.000000000000000000e+00
1.301000000000000000e+03 0.000000000000000000e+00
1.302000000000000000e+03 0.000000000000000000e+00
1.303000000000000000e+03 0.000000000000000000e+00
1.304000000000000000e+03 0.000000000000000000e+00
1.305000000000000000e+03 0.000000000000000000e+00
1.306000000000000000e+03 0.000000000000000000e+00
1.307000000000000000e+03 0.000000000000000000e+00
1.308000000000000000e+03 0.000000000000000000e+00
1.309000000000000000e+03 0.000000000000000000e+00
1.310000000000000000e+03 0.000000000000000000e+00
1.311000000000000000e+03 0.000000000000000000e+00
1.312000000000000000e+03 0.000000000000000000e+00
1.313000000000000000e+03 0.000000000000000000e+00
1.314000000000000000e+03 0.000000000000000000e+00
1.315000000000000000e+03 0.000000000000000000e+00
1.316000000000000000e+03 0.000000000000000000e+00
1.317000000000000000e+03 0.000000000000000000e+00
1.318000000000000000e+03 0.000000000000000000e+00
1.319000000000000000e+03 0.000000000000000000e+00
1.320000000000000000e+03 0.000000000000000000e+00
1.321000000000000000e+03 0.000000000000000000e+00
1.322000000000000000e+03 0.000000000000000000e+00
1.323000000000000000e+03 0.000000000000000000e+00
1.324000000000000000e+03 0.000000000000000000e+00
1.325000000000000000e+03 0.000000000000000000e+00
1.326000000000000000e+03 0.000000000000000000e+00
1.327000000000000000e+03 0.000000000000000000e+00
1.328000000000000000e+03 0.000000000000000000e+00
1.329000000000000000e+03 0.000000000000000000e+00
1.330000000000000000e+03 0.000000000000000000e+00
1.331000000000000000e+03 0.000000000000000000e+00
1.332000000000000000e+03 0.000000000000000000e+00
1.333000000000000000e+03 0.000000000000000000e+00
1.334000000000000000e+03 0.000000000000000000e+00
1.335000000000000000e+03 0.000000000000000000e+00
1.336000000000000000e+03 0.000000000000000000e+00
1.337000000000000000e+03 0.000000000000000000e+00
1.338000000000000000e+03 0.000000000000000000e+00
1.339000000000000000e+03 0.000000000000000000e+00
1.340000000000000000e+03 0.000000000000000000e+00
1.341000000000000000e+03 0.000000000000000000e+00
1.342000000000000000e+03 0.000000000000000000e+00
1.343000000000000000e+03 0.000000000000000000e+00
1.344000000000000000e+03 0.000000000000000000e+00
1.345000000000000000e+03 0.000000000000000000e+00
1.346000000000000000e+03 0.000000000000000000e+00
1.347000000000000000e+03 0.000000000000000000e+00
1.348000000000000000e+03 0.000000000000000000e+00
1.349000000000000000e+03 0.000000000000000000e+00
1.350000000000000000e+03 0.000000000000000000e+00
1.351000000000000000e+03 0.000000000000000000e+00
1.352000000000000000e+03 0.000000000000000000e+00
1.353000000000000000e+03 0.000000000000000000e+00
1.354000000000000000e+03 0.000000000000000000e+00
1.355000000000000000e+03 0.000000000000000000e+00
1.356000000000000000e+03 0.000000000000000000e+00
1.357000000000000000e+03 0.000000000000000000e+00
1.358000000000000000e+03 0.000000000000000000e+00
1.359000000000000000e+03 0.000000000000000000e+00
1.360000000000000000e+03 0.000000000000000000e+00
1.361000000000000000e+03 0.000000000000000000e+00
1.362000000000000000e+03 0.000000000000000000e+00
1.363000000000000000e+03 0.000000000000000000e+00
1.364000000000000000e+03 0.000000000000000000e+00
1.365000000000000000e+03 0.000000000000000000e+00
1.366000000000000000e+03 0.000000000000000000e+00
1.367000000000000000e+03 0.000000000000000000e+00
1.368000000000000000e+03 0.000000000000000000e+00
1.369000000000000000e+03 0.000000000000000000e+00
1.370000000000000000e+03 0.000000000000000000e+00
1.371000000000000000e+03 0.000000000000000000e+00
1.372000000000000000e+03 0.000000000000000000e+00
1.373000000000000000e+03 0.000000000000000000e+00
1.374000000000000000e+03 0.000000000000000000e+00
1.375000000000000000e+03 0.000000000000000000e+00
1.376000000000000000e+03 0.000000000000000000e+00
1.377000000000000000e+03 0.000000000000000000e+00
1.378000000000000000e+03 0.000000000000000000e+00
1.379000000000000000e+03 0.000000000000000000e+00
1.380000000000000000e+03 0.000000000000000000e+00
1.381000000000000000e+03 0.000000000000000000e+00
1.382000000000000000e+03 0.000000000000000000e+00
1.383000000000000000e+03 0.000000000000000000e+00
1.384000000000000000e+03 0.000000000000000000e+00
1.385000000000000000e+03 0.000000000000000000e+00
1.386000000000000000e+03 0.000000000000000000e+00
1.387000000000000000e+03 0.000000000000000000e+00
1.388000000000000000e+03 0.000000000000000000e+00
1.389000000000000000e+03 0.000000000000000000e+00
1.390000000000000000e+03 0.000000000000000000e+00
1.391000000000000000e+03 0.000000000000000000e+00
1.392000000000000000e+03 0.000000000000000000e+00
1.393000000000000000e+03 0.000000000000000000e+00
1.394000000000000000e+03 0.000000000000000000e+00
1.395000000000000000e+03 0.000000000000000000e+00
1.396000000000000000e+03 0.000000000000000000e+00
1.397000000000000000e+03 0.000000000000000000e+00
1.398000000000000000e+03 0.000000000000000000e+00
1.399000000000000000e+03 0.000000000000000000e+00
1.400000000000000000e+03 0.000000000000000000e+00
1.401000000000000000e+03 0.000000000000000000e+00
1.402000000000000000e+03 0.000000000000000000e+00
1.403000000000000000e+03 0.000000000000000000e+00
1.404000000000000000e+03 0.000000000000000000e+00
1.405000000000000000e+03 0.000000000000000000e+00
1.406000000000000000e+03 0.000000000000000000e+00
1.407000000000000000e+03 0.000000000000000000e+00
1.408000000000000000e+03 0.000000000000000000e+00
1.409000000000000000e+03 0.000000000000000000e+00
1.410000000000000000e+03 0.000000000000000000e+00
1.411000000000000000e+03 0.000000000000000000e+00
1.412000000000000000e+03 0.000000000000000000e+00
1.413000000000000000e+03 0.000000000000000000e+00
1.414000000000000000e+03 0.000000000000000000e+00
1.415000000000000000e+03 0.000000000000000000e+00
1.416000000000000000e+03 0.000000000000000000e+00
1.417000000000000000e+03 0.000000000000000000e+00
1.418000000000000000e+03 0.000000000000000000e+00
1.419000000000000000e+03 0.000000000000000000e+00
1.420000000000000000e+03 0.000000000000000000e+00
1.421000000000000000e+03 0.000000000000000000e+00
1.422000000000000000e+03 0.000000000000000000e+00
1.423000000000000000e+03 0.000000000000000000e+00
1.424000000000000000e+03 0.000000000000000000e+00
1.425000000000000000e+03 0.000000000000000000e+00
1.426000000000000000e+03 0.000000000000000000e+00
1.427000000000000000e+03 0.000000000000000000e+00
1.428000000000000000e+03 0.000000000000000000e+00
1.429000000000000000e+03 0.000000000000000000e+00
1.430000000000000000e+03 0.000000000000000000e+00
1.431000000000000000e+03 0.000000000000000000e+00
1.432000000000000000e+03 0.000000000000000000e+00
1.433000000000000000e+03 0.000000000000000000e+00
1.434000000000000000e+03 0.000000000000000000e+00
1.435000000000000000e+03 0.000000000000000000e+00
1.436000000000000000e+03 0.000000000000000000e+00
1.437000000000000000e+03 0.000000000000000000e+00
1.438000000000000000e+03 0.000000000000000000e+00
1.439000000000000000e+03 0.000000000000000000e+00
1.440000000000000000e+03 0.000000000000000000e+00
1.441000000000000000e+03 0.000000000000000000e+00
1.442000000000000000e+03 0.000000000000000000e+00
1.443000000000000000e+03 0.000000000000000000e+00
1.444000000000000000e+03 0.000000000000000000e+00
1.445000000000000000e+03 0.000000000000000000e+00
1.446000000000000000e+03 0.000000000000000000e+00
1.447000000000000000e+03 0.000000000000000000e+00
1.448000000000000000e+03 0.000000000000000000e+00
1.449000000000000000e+03 0.000000000000000000e+00
1.450000000000000000e+03 0.000000000000000000e+00
1.451000000000000000e+03 0.000000000000000000e+00
1.452000000000000000e+03 0.000000000000000000e+00
1.453000000000000000e+03 0.000000000000000000e+00
1.454000000000000000e+03 0.000000000000000000e+00
1.455000000000000000e+03 0.000000000000000000e+00
1.456000000000000000e+03 0.000000000000000000e+00
1.457000000000000000e+03 0.000000000000000000e+00
1.458000000000000000e+03 0.000000000000000000e+00
1.459000000000000000e+03 0.000000000000000000e+00
1.460000000000000000e+03 0.000000000000000000e+00
1.461000000000000000e+03 0.000000000000000000e+00
1.462000000000000000e+03 0.000000000000000000e+00
1.463000000000000000e+03 0.000000000000000000e+00
1.464000000000000000e+03 0.000000000000000000e+00
1.465000000000000000e+03 0.000000000000000000e+00
1.466000000000000000e+03 0.000000000000000000e+00
1.467000000000000000e+03 0.000000000000000000e+00
1.468000000000000000e+03 0.000000000000000000e+00
1.469000000000000000e+03 0.000000000000000000e+00
1.470000000000000000e+03 0.000000000000000000e+00
1.471000000000000000e+03 0.000000000000000000e+00
1.472000000000000000e+03 0.000000000000000000e+00
1.473000000000000000e+03 0.000000000000000000e+00
1.474000000000000000e+03 0.000000000000000000e+00
1.475000000000000000e+03 0.000000000000000000e+00
1.476000000000000000e+03 0.000000000000000000e+00
1.477000000000000000e+03 0.000000000000000000e+00
1.478000000000000000e+03 0.000000000000000000e+00
1.479000000000000000e+03 0.000000000000000000e+00
1.480000000000000000e+03 0.000000000000000000e+00
1.481000000000000000e+03 0.000000000000000000e+00
1.482000000000000000e+03 0.000000000000000000e+00
1.483000000000000000e+03 0.000000000000000000e+00
1.484000000000000000e+03 0.000000000000000000e+00
1.485000000000000000e+03 0.000000000000000000e+00
1.486000000000000000e+03 0.000000000000000000e+00
1.487000000000000000e+03 0.000000000000000000e+00
1.488000000000000000e+03 0.000000000000000000e+00
1.489000000000000000e+03 0.000000000000000000e+00
1.490000000000000000e+03 0.000000000000000000e+00
1.491000000000000000e+03 0.000000000000000000e+00
1.492000000000000000e+03 0.000000000000000000e+00
1.493000000000000000e+03 0.000000000000000000e+00
1.494000000000000000e+03 0.000000000000000000e+00
1.495000000000000000e+03 0.000000000000000000e+00
1.496000000000000000e+03 0.000000000000000000e+00
1.497000000000000000e+03 0.000000000000000000e+00
1.498000000000000000e+03 0.000000000000000000e+00
1.499000000000000000e+03 0.000000000000000000e+00
1.500000000000000000e+03 0.000000000000000000e+00
