1.010000000000000000e+02 0.000000000000000000e+00
1.020000000000000000e+02 0.000000000000000000e+00
1.030000000000000000e+02 0.000000000000000000e+00
1.040000000000000000e+02 0.000000000000000000e+00
1.050000000000000000e+02 0.000000000000000000e+00
1.060000000000000000e+02 0.000000000000000000e+00
1.070000000000000000e+02 0.000000000000000000e+00
1.080000000000000000e+02 0.000000000000000000e+00
1.090000000000000000e+02 0.000000000000000000e+00
1.100000000000000000e+02 0.000000000000000000e+00
1.110000000000000000e+02 0.000000000000000000e+00
1.120000000000000000e+02 0.000000000000000000e+00
1.130000000000000000e+02 0.000000000000000000e+00
1.140000000000000000e+02 0.000000000000000000e+00
1.150000000000000000e+02 0.000000000000000000e+00
1.160000000000000000e+02 0.000000000000000000e+00
1.170000000000000000e+02 0.000000000000000000e+00
1.180000000000000000e+02 0.000000000000000000e+00
1.190000000000000000e+02 0.000000000000000000e+00
1.200000000000000000e+02 1.153825557768097525e+02
1.210000000000000000e+02 6.097305577266105558e+01
1.220000000000000000e+02 2.983176336195823524e+02
1.230000000000000000e+02 1.449853792408216123e+03
1.240000000000000000e+02 3.294406336652155005e+03
1.250000000000000000e+02 5.715482949180671312e+03
1.260000000000000000e+02 8.545034577266116685e+03
1.270000000000000000e+02 1.169320244969923806e+04
1.280000000000000000e+02 1.502735827006844011e+04
1.290000000000000000e+02 1.825384006636251797e+04
1.300000000000000000e+02 2.123950934660857456e+04
1.310000000000000000e+02 2.412582561086908754e+04
1.320000000000000000e+02 2.703353545209455115e+04
1.330000000000000000e+02 2.997088712507779928e+04
1.340000000000000000e+02 3.300184699439950055e+04
1.350000000000000000e+02 3.629066993362370704e+04
1.360000000000000000e+02 3.984728524579964142e+04
1.370000000000000000e+02 4.347111543248291855e+04
1.380000000000000000e+02 4.727720125907488546e+04
1.390000000000000000e+02 5.155577438083382003e+04
1.400000000000000000e+02 5.628117825554858427e+04
1.410000000000000000e+02 6.108808457693907985e+04
1.420000000000000000e+02 6.610290813939017244e+04
1.430000000000000000e+02 7.064876932794024469e+04
1.440000000000000000e+02 7.360945048527581093e+04
1.450000000000000000e+02 7.309534804604850069e+04
1.460000000000000000e+02 6.809574263845672249e+04
1.470000000000000000e+02 6.073199002695978561e+04
1.480000000000000000e+02 5.217469641568147199e+04
1.490000000000000000e+02 4.359358968678693782e+04
1.500000000000000000e+02 3.554925406055573694e+04
1.510000000000000000e+02 2.887152319850653657e+04
1.520000000000000000e+02 2.338279708359264623e+04
1.530000000000000000e+02 1.881818914558269171e+04
1.540000000000000000e+02 1.516673604438910297e+04
1.550000000000000000e+02 1.228020850653390517e+04
1.560000000000000000e+02 9.879194490354711888e+03
1.570000000000000000e+02 7.858165417548245387e+03
1.580000000000000000e+02 6.304762013690089589e+03
1.590000000000000000e+02 5.065814695147236307e+03
1.600000000000000000e+02 4.073814326073431403e+03
1.610000000000000000e+02 3.268210841526660261e+03
1.620000000000000000e+02 2.591268527996680405e+03
1.630000000000000000e+02 2.022703466915574609e+03
1.640000000000000000e+02 1.572036770379589143e+03
1.650000000000000000e+02 1.213087548734967186e+03
1.660000000000000000e+02 9.103879722464257611e+02
1.670000000000000000e+02 6.494181741547373576e+02
1.680000000000000000e+02 4.757236065131714327e+02
1.690000000000000000e+02 3.020037328562550556e+02
1.700000000000000000e+02 9.096295376270632005e+01
1.710000000000000000e+02 2.508153986517399758e+01
1.720000000000000000e+02 9.330081805227153779e+01
1.730000000000000000e+02 1.861994736776600234e+02
1.740000000000000000e+02 3.054574393279392552e+02
1.750000000000000000e+02 3.786321394938815956e+02
1.760000000000000000e+02 4.123113164281270997e+02
1.770000000000000000e+02 4.633951550923043783e+02
1.780000000000000000e+02 5.266920309271931728e+02
1.790000000000000000e+02 5.318974165733252448e+02
1.800000000000000000e+02 4.844043149730398454e+02
1.810000000000000000e+02 4.059413093963906931e+02
1.820000000000000000e+02 3.408650806471687247e+02
1.830000000000000000e+02 3.146430183571877137e+02
1.840000000000000000e+02 2.540403799419201505e+02
1.850000000000000000e+02 2.053936044389129165e+02
1.860000000000000000e+02 1.514759786143956717e+02
1.870000000000000000e+02 7.672038381456195566e+01
1.880000000000000000e+02 1.335350123418374935e+01
1.890000000000000000e+02 4.757240479361155394e+01
1.900000000000000000e+02 1.108263518191245964e+02
1.910000000000000000e+02 1.933208797759794493e+02
1.920000000000000000e+02 3.128518339141267575e+02
1.930000000000000000e+02 4.132708413192290777e+02
1.940000000000000000e+02 5.569442104957481661e+02
1.950000000000000000e+02 7.556495001866818484e+02
1.960000000000000000e+02 9.798218364654617289e+02
1.970000000000000000e+02 1.222856959352967579e+03
1.980000000000000000e+02 1.378202730761252951e+03
1.990000000000000000e+02 1.359973669363203271e+03
2.000000000000000000e+02 1.172676631273332760e+03
2.010000000000000000e+02 9.697972312383302551e+02
2.020000000000000000e+02 7.961173266542202782e+02
2.030000000000000000e+02 6.691566002073831214e+02
2.040000000000000000e+02 5.932916225264473269e+02
2.050000000000000000e+02 5.606509163658989792e+02
2.060000000000000000e+02 5.308447009746990943e+02
2.070000000000000000e+02 5.271466816013274865e+02
2.080000000000000000e+02 5.413071377929890104e+02
2.090000000000000000e+02 5.460172495332916469e+02
2.100000000000000000e+02 5.636343028624768294e+02
2.110000000000000000e+02 5.783049820161792240e+02
2.120000000000000000e+02 5.958720496162620748e+02
2.130000000000000000e+02 6.203589162414434668e+02
2.140000000000000000e+02 6.311853499688863849e+02
2.150000000000000000e+02 6.651627742999379507e+02
2.160000000000000000e+02 6.995074270068449778e+02
2.170000000000000000e+02 7.187026493466084958e+02
2.180000000000000000e+02 7.327629163036716591e+02
2.190000000000000000e+02 7.544718886745489499e+02
2.200000000000000000e+02 7.791850457373989229e+02
2.210000000000000000e+02 7.977390199958513222e+02
2.220000000000000000e+02 8.026038984650485872e+02
2.230000000000000000e+02 8.192239535669849602e+02
2.240000000000000000e+02 8.502318210952084883e+02
2.250000000000000000e+02 8.716012480398258049e+02
2.260000000000000000e+02 8.762605316531837616e+02
2.270000000000000000e+02 9.095697155776813361e+02
2.280000000000000000e+02 9.372925373988799720e+02
2.290000000000000000e+02 9.544960053101016229e+02
2.300000000000000000e+02 9.579087879278158653e+02
2.310000000000000000e+02 9.375559926986101118e+02
2.320000000000000000e+02 9.144150123833228463e+02
2.330000000000000000e+02 8.944510077784691475e+02
2.340000000000000000e+02 8.640888532462147396e+02
2.350000000000000000e+02 8.071844313977609318e+02
2.360000000000000000e+02 7.489726260112005320e+02
2.370000000000000000e+02 6.769640479775978292e+02
2.380000000000000000e+02 6.130642428452925969e+02
2.390000000000000000e+02 5.694421816220702794e+02
2.400000000000000000e+02 5.314438971582654858e+02
2.410000000000000000e+02 4.943311005391952335e+02
2.420000000000000000e+02 4.666259308649658237e+02
2.430000000000000000e+02 4.337224181082767700e+02
2.440000000000000000e+02 3.844865916009953253e+02
2.450000000000000000e+02 3.786684425845260762e+02
2.460000000000000000e+02 3.728413785314250504e+02
2.470000000000000000e+02 3.600628142501556681e+02
2.480000000000000000e+02 3.479054904169258862e+02
2.490000000000000000e+02 3.472962429371499411e+02
2.500000000000000000e+02 3.412380409373703856e+02
2.510000000000000000e+02 3.445131640323583042e+02
2.520000000000000000e+02 3.586408727857289023e+02
2.530000000000000000e+02 3.715720958316052247e+02
2.540000000000000000e+02 3.789758278780336127e+02
2.550000000000000000e+02 3.772853957062850441e+02
2.560000000000000000e+02 3.832634866445455941e+02
2.570000000000000000e+02 4.012090906865793727e+02
2.580000000000000000e+02 3.961117115536197275e+02
2.590000000000000000e+02 3.975036851721276889e+02
2.600000000000000000e+02 4.095926287492220013e+02
2.610000000000000000e+02 4.142534076125286333e+02
2.620000000000000000e+02 3.844382217174859875e+02
2.630000000000000000e+02 3.925116177763949281e+02
2.640000000000000000e+02 3.869284099564407029e+02
2.650000000000000000e+02 3.681866469819537429e+02
2.660000000000000000e+02 3.558241066791121625e+02
2.670000000000000000e+02 3.524487347438290499e+02
2.680000000000000000e+02 3.242017238954565528e+02
2.690000000000000000e+02 3.083183247044183304e+02
2.700000000000000000e+02 3.121437056004978103e+02
2.710000000000000000e+02 2.997709613773080264e+02
2.720000000000000000e+02 2.791889858120716212e+02
2.730000000000000000e+02 2.698563482887367400e+02
2.740000000000000000e+02 2.645555622899814807e+02
2.750000000000000000e+02 2.495712718730558208e+02
2.760000000000000000e+02 2.306638207797597317e+02
2.770000000000000000e+02 2.232772579132960118e+02
2.780000000000000000e+02 2.181816846919727197e+02
2.790000000000000000e+02 2.107229540024886489e+02
2.800000000000000000e+02 2.066259805227131210e+02
2.810000000000000000e+02 2.020647147272350708e+02
2.820000000000000000e+02 1.800439012445554283e+02
2.830000000000000000e+02 1.572177625466611346e+02
2.840000000000000000e+02 1.537694312175897267e+02
2.850000000000000000e+02 1.620750990665837037e+02
2.860000000000000000e+02 1.516177937785148515e+02
2.870000000000000000e+02 1.444298702551337783e+02
2.880000000000000000e+02 1.454970569176519177e+02
2.890000000000000000e+02 1.354333976768301682e+02
2.900000000000000000e+02 1.211390560257206204e+02
2.910000000000000000e+02 1.171832093963908221e+02
2.920000000000000000e+02 1.147930677660238530e+02
2.930000000000000000e+02 1.033958649284381863e+02
2.940000000000000000e+02 8.982417646546335277e+01
2.950000000000000000e+02 8.499104348475420068e+01
2.960000000000000000e+02 8.902416212818903318e+01
2.970000000000000000e+02 9.610881823895442722e+01
2.980000000000000000e+02 9.952467612735947000e+01
2.990000000000000000e+02 9.480895978427720650e+01
3.000000000000000000e+02 6.910107054760473488e+01
3.010000000000000000e+02 5.776221641568141507e+01
3.020000000000000000e+02 7.485723064716863462e+01
3.030000000000000000e+02 7.747608328494403906e+01
3.040000000000000000e+02 6.419043103712905918e+01
3.050000000000000000e+02 6.095143495332925454e+01
3.060000000000000000e+02 6.931129853795114570e+01
3.070000000000000000e+02 7.100564439120483939e+01
3.080000000000000000e+02 4.993172828873642999e+01
3.090000000000000000e+02 4.224236105765241689e+01
3.100000000000000000e+02 4.417183934038577320e+01
3.110000000000000000e+02 4.707085072184207775e+01
3.120000000000000000e+02 5.214892594566568818e+01
3.130000000000000000e+02 4.595864276083815270e+01
3.140000000000000000e+02 4.340200398879897392e+01
3.150000000000000000e+02 4.064543557445045963e+01
3.160000000000000000e+02 3.136529084629749065e+01
3.170000000000000000e+02 2.731324097697578779e+01
3.180000000000000000e+02 2.223715697780542300e+01
3.190000000000000000e+02 2.978089379589296826e+01
3.200000000000000000e+02 3.535678394316543915e+01
3.210000000000000000e+02 1.278660694088336669e+01
3.220000000000000000e+02 1.591702395768504141e+00
3.230000000000000000e+02 1.344146146235228212e+00
3.240000000000000000e+02 3.755433644679530225e+00
3.250000000000000000e+02 4.005690768305351313e+00
3.260000000000000000e+02 5.907055086703993929e+00
3.270000000000000000e+02 9.255765141019939080e+00
3.280000000000000000e+02 9.304658484723038470e-01
3.290000000000000000e+02 8.683737631611588625e+00
3.300000000000000000e+02 1.878892186475804138e+01
3.310000000000000000e+02 3.322605672682003330e+01
3.320000000000000000e+02 3.168807845675177504e+01
3.330000000000000000e+02 3.260939046048529377e+01
3.340000000000000000e+02 3.965137227961002253e+01
3.350000000000000000e+02 3.923313030699028303e+01
3.360000000000000000e+02 3.594731545737398903e+01
3.370000000000000000e+02 5.345413845675155784e+01
3.380000000000000000e+02 5.217927762704866268e+01
3.390000000000000000e+02 2.247358438705648354e+01
3.400000000000000000e+02 3.538962809375653507e+01
3.410000000000000000e+02 3.382604863721221022e+01
3.420000000000000000e+02 3.016826815183569721e+01
3.430000000000000000e+02 2.560917314872415673e+01
3.440000000000000000e+02 1.338334497511403853e+01
3.450000000000000000e+02 8.360275509852664655e+00
3.460000000000000000e+02 6.991334166148062579e+00
3.470000000000000000e+02 2.804318202820397232e+00
3.480000000000000000e+02 9.510659215515238074e+00
3.490000000000000000e+02 1.892133864758325856e+01
3.500000000000000000e+02 2.751133620696812798e+01
3.510000000000000000e+02 4.185134577473530726e+01
3.520000000000000000e+02 6.414507069072757872e+01
3.530000000000000000e+02 8.370900535877225934e+01
3.540000000000000000e+02 8.452031365899190973e+01
3.550000000000000000e+02 1.054988463098939491e+02
3.560000000000000000e+02 1.316737336029871699e+02
3.570000000000000000e+02 1.519453027587638303e+02
3.580000000000000000e+02 1.687650574777017027e+02
3.590000000000000000e+02 1.956857566065135074e+02
3.600000000000000000e+02 2.043675838207841764e+02
3.610000000000000000e+02 2.282637521261152358e+02
3.620000000000000000e+02 2.732271899605889303e+02
3.630000000000000000e+02 3.214236798382090115e+02
3.640000000000000000e+02 3.787241285003120197e+02
3.650000000000000000e+02 4.120750656502795550e+02
3.660000000000000000e+02 4.359942604646333280e+02
3.670000000000000000e+02 4.745912576851288236e+02
3.680000000000000000e+02 5.429019704625587792e+02
3.690000000000000000e+02 6.229954222775344306e+02
3.700000000000000000e+02 6.772009129226290725e+02
3.710000000000000000e+02 7.282344927001228143e+02
3.720000000000000000e+02 8.071859531010152295e+02
3.730000000000000000e+02 9.338343470441801628e+02
3.740000000000000000e+02 1.022701771464121975e+03
3.750000000000000000e+02 1.086277051649035457e+03
3.760000000000000000e+02 1.177291316739264857e+03
3.770000000000000000e+02 1.315197371630029465e+03
3.780000000000000000e+02 1.419656390168015832e+03
3.790000000000000000e+02 1.525493723501348541e+03
3.800000000000000000e+02 1.656407279552055570e+03
3.810000000000000000e+02 1.775669896701930611e+03
3.820000000000000000e+02 1.847202202240199995e+03
3.830000000000000000e+02 1.969811410080892529e+03
3.840000000000000000e+02 2.114213942750470324e+03
3.850000000000000000e+02 2.259332387678907708e+03
3.860000000000000000e+02 2.369856506741339217e+03
3.870000000000000000e+02 2.423474589919102073e+03
3.880000000000000000e+02 2.536455080481227014e+03
3.890000000000000000e+02 2.618859208462974038e+03
3.900000000000000000e+02 2.672809115328769167e+03
3.910000000000000000e+02 2.710621901680149222e+03
3.920000000000000000e+02 2.720753309271935450e+03
3.930000000000000000e+02 2.762650033602986696e+03
3.940000000000000000e+02 2.787975727857291076e+03
3.950000000000000000e+02 2.761464820161791977e+03
3.960000000000000000e+02 2.693747678904791428e+03
3.970000000000000000e+02 2.645775299460804945e+03
3.980000000000000000e+02 2.514959847749426899e+03
3.990000000000000000e+02 2.377949692180044167e+03
4.000000000000000000e+02 2.239510145582746190e+03
4.010000000000000000e+02 2.081528344119472877e+03
4.020000000000000000e+02 1.920690529143327922e+03
4.030000000000000000e+02 1.774448499999999967e+03
4.040000000000000000e+02 1.618715671022612923e+03
4.050000000000000000e+02 1.449418672059743358e+03
4.060000000000000000e+02 1.289944807548734843e+03
4.070000000000000000e+02 1.177626037129227825e+03
4.080000000000000000e+02 1.052395846504876999e+03
4.090000000000000000e+02 9.378538297386976410e+02
4.100000000000000000e+02 8.435550866210332970e+02
4.110000000000000000e+02 7.559863047915379184e+02
4.120000000000000000e+02 6.608829278780328877e+02
4.130000000000000000e+02 5.963948225679316693e+02
4.140000000000000000e+02 5.347500036714375256e+02
4.150000000000000000e+02 4.873135103112032311e+02
4.160000000000000000e+02 4.785114109105991815e+02
4.170000000000000000e+02 4.414803399087322191e+02
4.180000000000000000e+02 3.755008676415679361e+02
4.190000000000000000e+02 3.271479160547597758e+02
4.200000000000000000e+02 3.039516670607753781e+02
4.210000000000000000e+02 2.814699414229410763e+02
4.220000000000000000e+02 2.672019665214689326e+02
4.230000000000000000e+02 2.438449790292463319e+02
4.240000000000000000e+02 2.187090734135209971e+02
4.250000000000000000e+02 2.010564769964738048e+02
4.260000000000000000e+02 1.945010035262397139e+02
4.270000000000000000e+02 1.749754850891749811e+02
4.280000000000000000e+02 1.670166925326696230e+02
4.290000000000000000e+02 1.504805193320893011e+02
4.300000000000000000e+02 1.238518037743675819e+02
4.310000000000000000e+02 1.163053092304501064e+02
4.320000000000000000e+02 1.023890345364033010e+02
4.330000000000000000e+02 1.060553468063045557e+02
4.340000000000000000e+02 1.022170953744035131e+02
4.350000000000000000e+02 8.400269505289355720e+01
4.360000000000000000e+02 7.947410259643291397e+01
4.370000000000000000e+02 6.366698642812674791e+01
4.380000000000000000e+02 5.627272244762496456e+01
4.390000000000000000e+02 5.826185886952902848e+01
4.400000000000000000e+02 5.389042027172713034e+01
4.410000000000000000e+02 2.883287817050391055e+01
4.420000000000000000e+02 3.394450685749827556e+01
4.430000000000000000e+02 3.555446098734716287e+01
4.440000000000000000e+02 2.340716239576844870e+01
4.450000000000000000e+02 1.232569368388300290e+01
4.460000000000000000e+02 1.864680726197877902e+01
4.470000000000000000e+02 1.164006724538493742e+01
4.480000000000000000e+02 1.379627697987969981e+01
4.490000000000000000e+02 1.266472936942546923e+01
4.500000000000000000e+02 5.744818012445580990e+00
4.510000000000000000e+02 1.578065945115106850e+01
4.520000000000000000e+02 7.867273023646635721e+00
4.530000000000000000e+02 2.444630469929491312e+01
4.540000000000000000e+02 1.334472031798321368e+01
4.550000000000000000e+02 8.161012212196464333e+00
4.560000000000000000e+02 1.493085292202392544e+01
4.570000000000000000e+02 2.593819232731803837e+01
4.580000000000000000e+02 1.615204837170671937e+01
4.590000000000000000e+02 6.695633953546255235e+00
4.600000000000000000e+02 4.390949198506651108e+00
4.610000000000000000e+02 4.660689156813671907e+00
4.620000000000000000e+02 1.714217823273205710e+01
4.630000000000000000e+02 3.095294428127239428e+00
4.640000000000000000e+02 8.982976110762569411e-01
4.650000000000000000e+02 1.573032677104918875e+01
4.660000000000000000e+02 2.076182155984237099e+01
4.670000000000000000e+02 1.590092688031530166e+01
4.680000000000000000e+02 2.242860347158847745e+01
4.690000000000000000e+02 2.767129410703171999e+01
4.700000000000000000e+02 2.873786216552581863e+01
4.710000000000000000e+02 3.634860693280798927e+01
4.720000000000000000e+02 3.145811702136487042e+01
4.730000000000000000e+02 5.644584663970162808e+01
4.740000000000000000e+02 7.754045379925358361e+01
4.750000000000000000e+02 7.603945749844416468e+01
4.760000000000000000e+02 7.267542552582462179e+01
4.770000000000000000e+02 1.076213077934458795e+02
4.780000000000000000e+02 1.253166750466706105e+02
4.790000000000000000e+02 1.365242312383326748e+02
4.800000000000000000e+02 1.520756740925117469e+02
4.810000000000000000e+02 1.683371353246211868e+02
4.820000000000000000e+02 1.806478424393278317e+02
4.830000000000000000e+02 1.717123080273802316e+02
4.840000000000000000e+02 1.838947746525614093e+02
4.850000000000000000e+02 2.198923733665209568e+02
4.860000000000000000e+02 2.544577050819333977e+02
4.870000000000000000e+02 2.837307327940261530e+02
4.880000000000000000e+02 2.883479238124870676e+02
4.890000000000000000e+02 3.188385103920355732e+02
4.900000000000000000e+02 3.603128619166151339e+02
4.910000000000000000e+02 3.840488010783907953e+02
4.920000000000000000e+02 4.168403836963297522e+02
4.930000000000000000e+02 4.790188099356992666e+02
4.940000000000000000e+02 5.522997811903777574e+02
4.950000000000000000e+02 6.120087576436413883e+02
4.960000000000000000e+02 6.677557805849432953e+02
4.970000000000000000e+02 7.664578586063878447e+02
4.980000000000000000e+02 8.404054687201814886e+02
4.990000000000000000e+02 9.158168515453207874e+02
5.000000000000000000e+02 9.912510226047276092e+02
5.010000000000000000e+02 1.064578292470441056e+03
5.020000000000000000e+02 1.154924561709187628e+03
5.030000000000000000e+02 1.271007449605973079e+03
5.040000000000000000e+02 1.376873425845260272e+03
5.050000000000000000e+02 1.462416291848164065e+03
5.060000000000000000e+02 1.547908143746109545e+03
5.070000000000000000e+02 1.661060215100602591e+03
5.080000000000000000e+02 1.768389134826799818e+03
5.090000000000000000e+02 1.854745423148724285e+03
5.100000000000000000e+02 1.943708922215309940e+03
5.110000000000000000e+02 2.034501971790085918e+03
5.120000000000000000e+02 2.093128386641775705e+03
5.130000000000000000e+02 2.106877135241651104e+03
5.140000000000000000e+02 2.133562607965152438e+03
5.150000000000000000e+02 2.097036661481020019e+03
5.160000000000000000e+02 2.040137880730138022e+03
5.170000000000000000e+02 2.015973457581413868e+03
5.180000000000000000e+02 1.954121778307754539e+03
5.190000000000000000e+02 1.876985919103917240e+03
5.200000000000000000e+02 1.783681916199955594e+03
5.210000000000000000e+02 1.688070681045207039e+03
5.220000000000000000e+02 1.602680096660441450e+03
5.230000000000000000e+02 1.526257477909145337e+03
5.240000000000000000e+02 1.428550922646202025e+03
5.250000000000000000e+02 1.317758371292265338e+03
5.260000000000000000e+02 1.209456758556318391e+03
5.270000000000000000e+02 1.121499016590624251e+03
5.280000000000000000e+02 1.056123968886123066e+03
5.290000000000000000e+02 9.580449073013897987e+02
5.300000000000000000e+02 8.858956184570704409e+02
5.310000000000000000e+02 8.318148118854996937e+02
5.320000000000000000e+02 7.703116958929672364e+02
5.330000000000000000e+02 6.985874616677024278e+02
5.340000000000000000e+02 6.555417145612935883e+02
5.350000000000000000e+02 6.117675437461102774e+02
5.360000000000000000e+02 5.662650153287688681e+02
5.370000000000000000e+02 5.164465771001857775e+02
5.380000000000000000e+02 4.680504475420035533e+02
5.390000000000000000e+02 4.403449367143739437e+02
5.400000000000000000e+02 3.925849856668735356e+02
5.410000000000000000e+02 3.555771731176104709e+02
5.420000000000000000e+02 3.204259087741134522e+02
5.430000000000000000e+02 2.850328127981748594e+02
5.440000000000000000e+02 2.689671765816220841e+02
5.450000000000000000e+02 2.586119157643639710e+02
5.460000000000000000e+02 2.328247238332295410e+02
5.470000000000000000e+02 2.117661899626711204e+02
5.480000000000000000e+02 1.944196171748597521e+02
5.490000000000000000e+02 1.682242753370670414e+02
5.500000000000000000e+02 1.476820783077561430e+02
5.510000000000000000e+02 1.187767675793402589e+02
5.520000000000000000e+02 9.721112753370677240e+01
5.530000000000000000e+02 8.555814875777684847e+01
5.540000000000000000e+02 7.605334726820160540e+01
5.550000000000000000e+02 6.326454268823906091e+01
5.560000000000000000e+02 5.756722847781002628e+01
5.570000000000000000e+02 5.010699092511930530e+01
5.580000000000000000e+02 4.070479809375660807e+01
5.590000000000000000e+02 3.080480782617711810e+01
5.600000000000000000e+02 2.222658680771626294e+01
5.610000000000000000e+02 2.525452613565649784e+01
5.620000000000000000e+02 1.958155174859989600e+01
5.630000000000000000e+02 5.449668222982747778e+00
5.640000000000000000e+02 8.911623464841463615e+00
5.650000000000000000e+02 1.363568689483517815e+01
5.660000000000000000e+02 1.826911270275840948e+01
5.670000000000000000e+02 1.365971154947145116e+01
5.680000000000000000e+02 8.860920479153676865e+00
5.690000000000000000e+02 8.128427012445616384e+00
5.700000000000000000e+02 1.159826462704801031e+01
5.710000000000000000e+02 2.925054712715183669e+01
5.720000000000000000e+02 2.509799664384967599e+01
5.730000000000000000e+02 3.889717260734259696e+01
5.740000000000000000e+02 4.173232153702580405e+01
5.750000000000000000e+02 2.234951764986509914e+01
5.760000000000000000e+02 1.685682426467544071e+00
5.770000000000000000e+02 1.637677589296826142e+01
5.780000000000000000e+02 3.186330252644695804e+01
5.790000000000000000e+02 1.922969297448598525e+01
5.800000000000000000e+02 1.235933529247075313e+01
5.810000000000000000e+02 1.792760260734316446e+01
5.820000000000000000e+02 6.201871779091819192e+00
5.830000000000000000e+02 1.826141120514465044e+01
5.840000000000000000e+02 3.794058716656208219e+01
5.850000000000000000e+02 4.530803249118457643e+01
5.860000000000000000e+02 4.697831953338800304e+01
5.870000000000000000e+02 5.911567121344110376e+01
5.880000000000000000e+02 6.470688993569757486e+01
5.890000000000000000e+02 8.672872795105718069e+01
5.900000000000000000e+02 9.782692261978840520e+01
5.910000000000000000e+02 1.117072208462972895e+02
5.920000000000000000e+02 1.418195082123602049e+02
5.930000000000000000e+02 1.727492318191250433e+02
5.940000000000000000e+02 1.857124817672684003e+02
5.950000000000000000e+02 2.112617211115730527e+02
5.960000000000000000e+02 2.579630039825783001e+02
5.970000000000000000e+02 2.964378531217598720e+02
5.980000000000000000e+02 3.173042090004133229e+02
5.990000000000000000e+02 3.703715942750446288e+02
6.000000000000000000e+02 4.035248042314887016e+02
6.010000000000000000e+02 4.389710140634708750e+02
6.020000000000000000e+02 4.951007801908293118e+02
6.030000000000000000e+02 5.599475549678475090e+02
6.040000000000000000e+02 6.108954738021150206e+02
6.050000000000000000e+02 6.871041168637202645e+02
6.060000000000000000e+02 7.615355031113867881e+02
6.070000000000000000e+02 8.289949419415066814e+02
6.080000000000000000e+02 9.295620462559647876e+02
6.090000000000000000e+02 1.070116573739888963e+03
6.100000000000000000e+02 1.192773364654639863e+03
6.110000000000000000e+02 1.306195226509026497e+03
6.120000000000000000e+02 1.435806387391128283e+03
6.130000000000000000e+02 1.582000299730353618e+03
6.140000000000000000e+02 1.748530086496584090e+03
6.150000000000000000e+02 1.942318734135219984e+03
6.160000000000000000e+02 2.156985063887150773e+03
6.170000000000000000e+02 2.425754621862692602e+03
6.180000000000000000e+02 2.681246824968900455e+03
6.190000000000000000e+02 2.928035042314867951e+03
6.200000000000000000e+02 3.205973956647992509e+03
6.210000000000000000e+02 3.528670289299044725e+03
6.220000000000000000e+02 3.907866136693633507e+03
6.230000000000000000e+02 4.231298334163037907e+03
6.240000000000000000e+02 4.578213544587317301e+03
6.250000000000000000e+02 4.956943343912061209e+03
6.260000000000000000e+02 5.342659701514216977e+03
6.270000000000000000e+02 5.772860800663775990e+03
6.280000000000000000e+02 6.160498392657134900e+03
6.290000000000000000e+02 6.579844205766444247e+03
6.300000000000000000e+02 6.957102885915795014e+03
6.310000000000000000e+02 7.296720957685135545e+03
6.320000000000000000e+02 7.666179425637837994e+03
6.330000000000000000e+02 7.992174640323578387e+03
6.340000000000000000e+02 8.176614969300976554e+03
6.350000000000000000e+02 8.267730589089400382e+03
6.360000000000000000e+02 8.334321883841526869e+03
6.370000000000000000e+02 8.392666193528313670e+03
6.380000000000000000e+02 8.406730898983614679e+03
6.390000000000000000e+02 8.293305883426672153e+03
6.400000000000000000e+02 8.078754210952082758e+03
6.410000000000000000e+02 7.842771391538779426e+03
6.420000000000000000e+02 7.533196432482881391e+03
6.430000000000000000e+02 7.154683761252850672e+03
6.440000000000000000e+02 6.836339596018247903e+03
6.450000000000000000e+02 6.479999869736565415e+03
6.460000000000000000e+02 6.049842992532669086e+03
6.470000000000000000e+02 5.645369491497302079e+03
6.480000000000000000e+02 5.279198497614600456e+03
6.490000000000000000e+02 4.907598487450737593e+03
6.500000000000000000e+02 4.527313556615509697e+03
6.510000000000000000e+02 4.208172986932171625e+03
6.520000000000000000e+02 3.888659024268826215e+03
6.530000000000000000e+02 3.581465019498027232e+03
6.540000000000000000e+02 3.299203880937565373e+03
6.550000000000000000e+02 3.043541011200993125e+03
6.560000000000000000e+02 2.827862371499687924e+03
6.570000000000000000e+02 2.602030842356358789e+03
6.580000000000000000e+02 2.429579931342047530e+03
6.590000000000000000e+02 2.257674576436423649e+03
6.600000000000000000e+02 2.061096977598010199e+03
6.610000000000000000e+02 1.889922995851485894e+03
6.620000000000000000e+02 1.773767205394193297e+03
6.630000000000000000e+02 1.651980982576233828e+03
6.640000000000000000e+02 1.542288036092099446e+03
6.650000000000000000e+02 1.423963309894216991e+03
6.660000000000000000e+02 1.299953564496064018e+03
6.670000000000000000e+02 1.205072644472102411e+03
6.680000000000000000e+02 1.139808115743623148e+03
6.690000000000000000e+02 1.035745873662382110e+03
6.700000000000000000e+02 9.306428611906238757e+02
6.710000000000000000e+02 8.710284699439949918e+02
6.720000000000000000e+02 8.410351188303600338e+02
6.730000000000000000e+02 7.746679377100168722e+02
6.740000000000000000e+02 7.058544743206788326e+02
6.750000000000000000e+02 6.536609567399435718e+02
6.760000000000000000e+02 6.141083692180059188e+02
6.770000000000000000e+02 5.673404963285598797e+02
6.780000000000000000e+02 5.189408519701382829e+02
6.790000000000000000e+02 4.985244851483104185e+02
6.800000000000000000e+02 4.671323553827021442e+02
6.810000000000000000e+02 4.365178397635352781e+02
6.820000000000000000e+02 4.027509523335415906e+02
6.830000000000000000e+02 3.681739452395777334e+02
6.840000000000000000e+02 3.330105437253682226e+02
6.850000000000000000e+02 3.005267191039203567e+02
6.860000000000000000e+02 2.939222805849408928e+02
6.870000000000000000e+02 2.623574349719967813e+02
6.880000000000000000e+02 2.444226093134204518e+02
6.890000000000000000e+02 2.377786728894418502e+02
6.900000000000000000e+02 2.247628873262802927e+02
6.910000000000000000e+02 2.108334166148097779e+02
6.920000000000000000e+02 2.054951155154529943e+02
6.930000000000000000e+02 1.804468378552182912e+02
6.940000000000000000e+02 1.509130169674330375e+02
6.950000000000000000e+02 1.407624282040650598e+02
6.960000000000000000e+02 1.440954099564409034e+02
6.970000000000000000e+02 1.315903104957481844e+02
6.980000000000000000e+02 1.194127467026132479e+02
6.990000000000000000e+02 1.119045057042107914e+02
7.000000000000000000e+02 1.106418837585563040e+02
7.010000000000000000e+02 9.983980690999575813e+01
7.020000000000000000e+02 8.217906389545726142e+01
7.030000000000000000e+02 8.124249121551545727e+01
7.040000000000000000e+02 7.989655921194514576e+01
7.050000000000000000e+02 7.053406751711223421e+01
7.060000000000000000e+02 5.141681774113173020e+01
7.070000000000000000e+02 4.431117919518823101e+01
7.080000000000000000e+02 5.130420014934659889e+01
7.090000000000000000e+02 4.759056377722428977e+01
7.100000000000000000e+02 3.322064206596207470e+01
7.110000000000000000e+02 1.477040250363035234e+01
7.120000000000000000e+02 2.387972815598492815e+01
7.130000000000000000e+02 3.521972958307409840e+01
7.140000000000000000e+02 2.598261822650925978e+01
7.150000000000000000e+02 1.395320516905217012e+01
7.160000000000000000e+02 1.606353873677661781e+01
7.170000000000000000e+02 1.081297155776805852e+01
7.180000000000000000e+02 1.244968421281894955e+01
7.190000000000000000e+02 1.747391309894225842e+01
7.200000000000000000e+02 1.100690305745638220e+01
7.210000000000000000e+02 8.201761827042723496e+00
7.220000000000000000e+02 7.316230590749041696e+00
7.230000000000000000e+02 1.834361637834496150e+01
7.240000000000000000e+02 2.358177289506424756e+01
7.250000000000000000e+02 1.249152027712033330e+01
7.260000000000000000e+02 6.743424061398357594e+00
7.270000000000000000e+02 2.068020292824563455e+01
7.280000000000000000e+02 1.667806352209094456e+01
7.290000000000000000e+02 1.560268386019498266e+01
7.300000000000000000e+02 1.477486459448246947e+01
7.310000000000000000e+02 9.538009159925323388e+00
7.320000000000000000e+02 6.703326380211573010e+00
7.330000000000000000e+02 1.126572450404491654e+01
7.340000000000000000e+02 1.690783063679728926e+01
7.350000000000000000e+02 1.184594843011196019e+01
7.360000000000000000e+02 1.157086348267997167e+01
7.370000000000000000e+02 1.233552102675792206e+01
7.380000000000000000e+02 5.868879640812803444e+00
7.390000000000000000e+02 1.921275453018035817e+00
7.400000000000000000e+02 8.620195617299351909e+00
7.410000000000000000e+02 8.735719552675210053e+00
7.420000000000000000e+02 4.243806581829444369e+00
7.430000000000000000e+02 8.199294339556141509e+00
7.440000000000000000e+02 5.117325367896971677e+00
7.450000000000000000e+02 7.679079022194503779e+00
7.460000000000000000e+02 1.051803995021779947e+01
7.470000000000000000e+02 6.121146710018726012e+00
7.480000000000000000e+02 4.950222274009492551e+00
7.490000000000000000e+02 7.531082119062372904e+00
7.500000000000000000e+02 1.932077828873685732e+01
7.510000000000000000e+02 2.020031875544491129e+01
7.520000000000000000e+02 1.345351598216130995e+01
7.530000000000000000e+02 2.706524075917830885e+01
7.540000000000000000e+02 3.986783396390775636e+01
7.550000000000000000e+02 2.907029245799650852e+01
7.560000000000000000e+02 2.528687537025498600e+01
7.570000000000000000e+02 2.814898678075099525e+01
7.580000000000000000e+02 2.988602065961405074e+01
7.590000000000000000e+02 4.445156110765370983e+01
7.600000000000000000e+02 4.091634586600308410e+01
7.610000000000000000e+02 4.219216582244348501e+01
7.620000000000000000e+02 3.857970228168433380e+01
7.630000000000000000e+02 4.662980337619219284e+01
7.640000000000000000e+02 6.269486642190418735e+01
7.650000000000000000e+02 6.210588573117608746e+01
7.660000000000000000e+02 6.223590379925320804e+01
7.670000000000000000e+02 7.804310970338146092e+01
7.680000000000000000e+02 7.528385217797109874e+01
7.690000000000000000e+02 8.841161686851816626e+01
7.700000000000000000e+02 9.767274088363454609e+01
7.710000000000000000e+02 7.852631693424653747e+01
7.720000000000000000e+02 8.150729191621702796e+01
7.730000000000000000e+02 1.084827362663337880e+02
7.740000000000000000e+02 1.097890852935077248e+02
7.750000000000000000e+02 1.107068525824516314e+02
7.760000000000000000e+02 1.188545519186888697e+02
7.770000000000000000e+02 1.283117880522711118e+02
7.780000000000000000e+02 1.348675133167392630e+02
7.790000000000000000e+02 1.341212667288944260e+02
7.800000000000000000e+02 1.356270584526031939e+02
7.810000000000000000e+02 1.418027290603610879e+02
7.820000000000000000e+02 1.410087635345362287e+02
7.830000000000000000e+02 1.464212031943584691e+02
7.840000000000000000e+02 1.603475290188756048e+02
7.850000000000000000e+02 1.476964916199953279e+02
7.860000000000000000e+02 1.427870673926570078e+02
7.870000000000000000e+02 1.412635766023647079e+02
7.880000000000000000e+02 1.539369092304492881e+02
7.890000000000000000e+02 1.637904373911239304e+02
7.900000000000000000e+02 1.621086730346401339e+02
7.910000000000000000e+02 1.591132853764782169e+02
7.920000000000000000e+02 1.487720704272087175e+02
7.930000000000000000e+02 1.494343136693631777e+02
7.940000000000000000e+02 1.540525213648620309e+02
7.950000000000000000e+02 1.637515577561179043e+02
7.960000000000000000e+02 1.651605000622275838e+02
7.970000000000000000e+02 1.528693416718521689e+02
7.980000000000000000e+02 1.481456899211945029e+02
7.990000000000000000e+02 1.626891541796312026e+02
8.000000000000000000e+02 1.428434371499678264e+02
8.010000000000000000e+02 1.378906945239573361e+02
8.020000000000000000e+02 1.430394564820577443e+02
8.030000000000000000e+02 1.424893402613563751e+02
8.040000000000000000e+02 1.396733169259487397e+02
8.050000000000000000e+02 1.426308138145616908e+02
8.060000000000000000e+02 1.230961927400960860e+02
8.070000000000000000e+02 1.125996785729102072e+02
8.080000000000000000e+02 1.156587017631195806e+02
8.090000000000000000e+02 1.201497535780958117e+02
8.100000000000000000e+02 1.154799634100807992e+02
8.110000000000000000e+02 1.076509860817257760e+02
8.120000000000000000e+02 1.151424354075918330e+02
8.130000000000000000e+02 1.054620886745484256e+02
8.140000000000000000e+02 1.022546081518357681e+02
8.150000000000000000e+02 9.825915564496044396e+01
8.160000000000000000e+02 9.639601848579165733e+01
8.170000000000000000e+02 9.857463468989803346e+01
8.180000000000000000e+02 8.838838138324349814e+01
8.190000000000000000e+02 9.362711135656522288e+01
8.200000000000000000e+02 9.577041882182115273e+01
8.210000000000000000e+02 8.880327639568616860e+01
8.220000000000000000e+02 8.285764500725991866e+01
8.230000000000000000e+02 7.997003423148733248e+01
8.240000000000000000e+02 7.590345527374523726e+01
8.250000000000000000e+02 7.538165853764779456e+01
8.260000000000000000e+02 8.061546965567310963e+01
8.270000000000000000e+02 7.829604016590614890e+01
8.280000000000000000e+02 7.061230048537638027e+01
8.290000000000000000e+02 7.474577489525012197e+01
8.300000000000000000e+02 8.255459813524139179e+01
8.310000000000000000e+02 7.272872569591353908e+01
8.320000000000000000e+02 6.505152569383945149e+01
8.330000000000000000e+02 6.734785156813941853e+01
8.340000000000000000e+02 6.197766369425418986e+01
8.350000000000000000e+02 5.768426841526653703e+01
8.360000000000000000e+02 6.160710327732854807e+01
8.370000000000000000e+02 6.400629548226504539e+01
8.380000000000000000e+02 5.632093353661066004e+01
8.390000000000000000e+02 5.633672537647790790e+01
8.400000000000000000e+02 6.330206553619578358e+01
8.410000000000000000e+02 6.350379457996267263e+01
8.420000000000000000e+02 6.021062247873886975e+01
8.430000000000000000e+02 5.812252091059946224e+01
8.440000000000000000e+02 5.822915873055381297e+01
8.450000000000000000e+02 5.932603462352208368e+01
8.460000000000000000e+02 5.885404775980086356e+01
8.470000000000000000e+02 6.224736735117194542e+01
8.480000000000000000e+02 5.192370460900260554e+01
8.490000000000000000e+02 4.882980304086284917e+01
8.500000000000000000e+02 5.226106008089608679e+01
8.510000000000000000e+02 5.207943036299520401e+01
8.520000000000000000e+02 5.307603573947314146e+01
8.530000000000000000e+02 4.843452920763339620e+01
8.540000000000000000e+02 3.678487734287529065e+01
8.550000000000000000e+02 3.556724082140631538e+01
8.560000000000000000e+02 3.729680564820577615e+01
8.570000000000000000e+02 3.267180445458325266e+01
8.580000000000000000e+02 3.155231725783054841e+01
8.590000000000000000e+02 4.782779836341012469e+01
8.600000000000000000e+02 4.627581796764835076e+01
8.610000000000000000e+02 4.498166115951050159e+01
8.620000000000000000e+02 4.029577188550076983e+01
8.630000000000000000e+02 4.402585069680603880e+01
8.640000000000000000e+02 4.339069663970164470e+01
8.650000000000000000e+02 3.261078306160575124e+01
8.660000000000000000e+02 2.865779731231862826e+01
8.670000000000000000e+02 2.625265313835302905e+01
8.680000000000000000e+02 4.329112892968187509e+01
8.690000000000000000e+02 3.523873484754221153e+01
8.700000000000000000e+02 2.925229103505493811e+01
8.710000000000000000e+02 2.984338372744246826e+01
8.720000000000000000e+02 2.844091562331465894e+01
8.730000000000000000e+02 2.638786287492219529e+01
8.740000000000000000e+02 2.293229342874922949e+01
8.750000000000000000e+02 2.816730098112437730e+01
8.760000000000000000e+02 2.572422644472084841e+01
8.770000000000000000e+02 1.954978137523320925e+01
8.780000000000000000e+02 1.271171191661510491e+01
8.790000000000000000e+02 8.565586850653332363e+00
8.800000000000000000e+02 1.299082403961868337e+01
8.810000000000000000e+02 2.363638444513549430e+01
8.820000000000000000e+02 2.191839083385202613e+01
8.830000000000000000e+02 1.948311893820002183e+01
8.840000000000000000e+02 1.686874337896711751e+01
8.850000000000000000e+02 9.317118678905069729e+00
8.860000000000000000e+02 9.754799999999665516e+00
8.870000000000000000e+02 2.262238157436216923e+01
8.880000000000000000e+02 1.443425569176523027e+01
8.890000000000000000e+02 3.868529968062973001e+00
8.900000000000000000e+02 4.234988591993428919e+00
8.910000000000000000e+02 7.050323123833267758e+00
8.920000000000000000e+02 3.726870226046993917e+00
8.930000000000000000e+02 3.502175326073689643e+00
8.940000000000000000e+02 6.511162171333542581e+00
8.950000000000000000e+02 5.631050300145667542e+00
8.960000000000000000e+02 8.555703571872788515e+00
8.970000000000000000e+02 8.776875795477774744e+00
8.980000000000000000e+02 4.367666654635689483e+00
8.990000000000000000e+02 4.123817242688491369e+00
9.000000000000000000e+02 4.932664652146820927e+00
9.010000000000000000e+02 3.770946570006253662e+00
9.020000000000000000e+02 4.120727922592944958e-01
9.030000000000000000e+02 6.052289551870780882e-01
9.040000000000000000e+02 5.754204701929116261e+00
9.050000000000000000e+02 4.370629294959504918e+00
9.060000000000000000e+02 5.055978521261184966e+00
9.070000000000000000e+02 9.618569991910590034e+00
9.080000000000000000e+02 5.528461641567738560e+00
9.090000000000000000e+02 8.270006957071549536e+00
9.100000000000000000e+02 2.727653280024983751e+00
9.110000000000000000e+02 5.318161101223764398e+00
9.120000000000000000e+02 1.447470541683970380e+00
9.130000000000000000e+02 4.121895254926233321e+00
9.140000000000000000e+02 1.122081373864370946e+01
9.150000000000000000e+02 1.415767032766470024e+01
9.160000000000000000e+02 4.183118578925776099e+00
9.170000000000000000e+02 8.147527897946408970e+00
9.180000000000000000e+02 2.762120736209036753e+00
9.190000000000000000e+02 1.588978652769158728e+00
9.200000000000000000e+02 5.589086124870380701e+00
9.210000000000000000e+02 6.068590689755254175e+00
9.220000000000000000e+02 5.008570630367121801e+00
9.230000000000000000e+02 2.846022777224548772e+00
9.240000000000000000e+02 2.655463815806475392e+00
9.250000000000000000e+02 1.676340429993760139e+01
9.260000000000000000e+02 3.474310222567824180e+00
9.270000000000000000e+02 1.752867806264216011e+00
9.280000000000000000e+02 3.118291533291969397e+00
9.290000000000000000e+02 5.610131940883624324e+00
9.300000000000000000e+02 3.545191975523822148e+00
9.310000000000000000e+02 2.813318236514520176e+00
9.320000000000000000e+02 5.939728398257628328e+00
9.330000000000000000e+02 3.541974746110776451e+00
9.340000000000000000e+02 1.401170056005314191e-01
9.350000000000000000e+02 3.129496864965767955e+00
9.360000000000000000e+02 3.316629800871187417e+00
9.370000000000000000e+02 7.174454139361141181e+00
9.380000000000000000e+02 9.635943716448881702e+00
9.390000000000000000e+02 6.181497474382805279e+00
9.400000000000000000e+02 1.194590774574871972e+01
9.410000000000000000e+02 3.599252950217825209e+00
9.420000000000000000e+02 5.658317080066304072e+00
9.430000000000000000e+02 9.196602217751950192e+00
9.440000000000000000e+02 5.552785098942198516e+00
9.450000000000000000e+02 1.386336627878062000e+00
9.460000000000000000e+02 5.637858684985397772e+00
9.470000000000000000e+02 1.443557406347222205e+01
9.480000000000000000e+02 1.375607380626439635e+01
9.490000000000000000e+02 3.687679894420245130e+00
9.500000000000000000e+02 2.353562055382631968e+00
9.510000000000000000e+02 7.448966876166766227e+00
9.520000000000000000e+02 5.695544511926942555e+00
9.530000000000000000e+02 5.816117843600991932e+00
9.540000000000000000e+02 9.373742046670813011e+00
9.550000000000000000e+02 8.945983115121338258e+00
9.560000000000000000e+02 1.012766398672468959e+01
9.570000000000000000e+02 1.301969985895049398e+01
9.580000000000000000e+02 9.498415438705750447e+00
9.590000000000000000e+02 1.197177219041673268e+01
9.600000000000000000e+02 1.458235314250155135e+01
9.610000000000000000e+02 1.516182764986514186e+01
9.620000000000000000e+02 1.652345103712918828e+01
9.630000000000000000e+02 1.423733879552101023e+01
9.640000000000000000e+02 2.406758281269498756e+00
9.650000000000000000e+02 2.074191852935094893e+00
9.660000000000000000e+02 2.327444670675979488e+00
9.670000000000000000e+02 1.407462340593246530e+01
9.680000000000000000e+02 1.495035431860603481e+01
9.690000000000000000e+02 3.796487366653286788e+00
9.700000000000000000e+02 1.575171908525186071e+00
9.710000000000000000e+02 8.636308625389126803e+00
9.720000000000000000e+02 1.223926736776603441e+01
9.730000000000000000e+02 6.915944869944206985e+00
9.740000000000000000e+02 1.289637183903800377e+01
9.750000000000000000e+02 1.462712073013903513e+01
9.760000000000000000e+02 6.703712476664987818e+00
9.770000000000000000e+02 1.172416223143785352e+00
9.780000000000000000e+02 3.714317097697557024e+00
9.790000000000000000e+02 4.276838383115535436e+00
9.800000000000000000e+02 4.847121576109461927e+00
9.810000000000000000e+02 7.746584310101641613e+00
9.820000000000000000e+02 7.156618928438082783e+00
9.830000000000000000e+02 4.141882102239694774e+00
9.840000000000000000e+02 4.553543766853426433e+00
9.850000000000000000e+02 5.469181633271076315e+00
9.860000000000000000e+02 1.111490644131411631e+00
9.870000000000000000e+02 3.117828038581205607e+00
9.880000000000000000e+02 7.872825617299705314e+00
9.890000000000000000e+02 8.679302351099188684e+00
9.900000000000000000e+02 5.357004280854614109e+00
9.910000000000000000e+02 6.943844683260567585e+00
9.920000000000000000e+02 9.218514079651512816e+00
9.930000000000000000e+02 8.289052036714462446e+00
9.940000000000000000e+02 8.211158463596596846e+00
9.950000000000000000e+02 9.305466331259111712e+00
9.960000000000000000e+02 9.093403130055860428e-01
9.970000000000000000e+02 1.203278616677014412e+00
9.980000000000000000e+02 7.695438859157651690e-01
9.990000000000000000e+02 3.287967688446447490e+00
1.000000000000000000e+03 3.728846248962666809e+00
1.001000000000000000e+03 5.434484612033009476e+00
1.002000000000000000e+03 7.987734565217395222e+00
1.003000000000000000e+03 4.923425373444136888e+00
1.004000000000000000e+03 1.896810352697296809e+00
1.005000000000000000e+03 9.744290228215776395e+00
1.006000000000000000e+03 4.376864267634640981e+00
1.007000000000000000e+03 6.476351390041392708e-01
1.008000000000000000e+03 8.357321742737817694e-01
1.009000000000000000e+03 5.294710417012572279e+00
1.010000000000000000e+03 9.691645739130411386e+00
1.011000000000000000e+03 8.562495929460647304e+00
1.012000000000000000e+03 5.180555817427399568e+00
1.013000000000000000e+03 4.262008655601667861e+00
1.014000000000000000e+03 4.606369325051768548e+00
1.015000000000000000e+03 3.662733869294634736e+00
1.016000000000000000e+03 7.581456512448339069e+00
1.017000000000000000e+03 1.103800271784231768e+01
1.018000000000000000e+03 8.854264149068169942e+00
1.019000000000000000e+03 6.517591307053985261e+00
1.020000000000000000e+03 1.038930460580905368e+01
1.021000000000000000e+03 9.785868589211535351e+00
1.022000000000000000e+03 4.597542809128556840e+00
1.023000000000000000e+03 1.341974875518663701e+01
1.024000000000000000e+03 1.107080335062306098e+01
1.025000000000000000e+03 3.399891526971321021e+00
1.026000000000000000e+03 2.292804134854775189e+00
1.027000000000000000e+03 5.587589170124721782e+00
1.028000000000000000e+03 8.802333203319157917e+00
1.029000000000000000e+03 1.303416099585055044e+01
1.030000000000000000e+03 1.377573406639015907e+01
1.031000000000000000e+03 1.589354323651490830e+01
1.032000000000000000e+03 8.699773526971339876e+00
1.033000000000000000e+03 1.055292772022777825e+00
1.034000000000000000e+03 7.527164526972120129e+00
1.035000000000000000e+03 1.431493958592162485e+01
1.036000000000000000e+03 1.045588189626558062e+01
1.037000000000000000e+03 8.738808410788365677e+00
1.038000000000000000e+03 7.383622481327906328e+00
1.039000000000000000e+03 1.555503968944228266e+00
1.040000000000000000e+03 5.132328728215963309e+00
1.041000000000000000e+03 1.297092468879731797e+01
1.042000000000000000e+03 6.084989134855956827e+00
1.043000000000000000e+03 2.810054745341633797e+00
1.044000000000000000e+03 7.336255804979392003e+00
1.045000000000000000e+03 7.469036315353024591e+00
1.046000000000000000e+03 6.421652630705106723e+00
1.047000000000000000e+03 1.308066490683238747e+01
1.048000000000000000e+03 1.286965709543552627e+01
1.049000000000000000e+03 4.486045425311515622e+00
1.050000000000000000e+03 8.411273500000000070e+00
1.051000000000000000e+03 9.947412282157436891e+00
1.052000000000000000e+03 3.226781078839007666e+00
1.053000000000000000e+03 6.177671161825981638e-01
1.054000000000000000e+03 8.342161452282106371e-01
1.055000000000000000e+03 1.288104161825983640e+00
1.056000000000000000e+03 7.033908746887719055e+00
1.057000000000000000e+03 8.998252821576663507e+00
1.058000000000000000e+03 8.244838235579606822e-01
1.059000000000000000e+03 3.872303614107387659e+00
1.060000000000000000e+03 5.125706132780100788e+00
1.061000000000000000e+03 8.330564958506673889e+00
1.062000000000000000e+03 1.062856697925286653e+01
1.063000000000000000e+03 5.569943850622301795e+00
1.064000000000000000e+03 8.053380012422376666e+00
1.065000000000000000e+03 6.868143331949976726e+00
1.066000000000000000e+03 4.295428773859019778e+00
1.067000000000000000e+03 8.984392267634769169e+00
1.068000000000000000e+03 7.549404854771606388e+00
1.069000000000000000e+03 8.994592178422886164e+00
1.070000000000000000e+03 9.096517655601754626e+00
1.071000000000000000e+03 2.730431975103634112e+00
1.072000000000000000e+03 1.487414755694215884e+00
1.073000000000000000e+03 9.242331593361273079e+00
1.074000000000000000e+03 4.397054674273858765e+00
1.075000000000000000e+03 6.681528012448280762e+00
1.076000000000000000e+03 8.306504714285765090e+00
1.077000000000000000e+03 1.265707804979244955e+01
1.078000000000000000e+03 7.696076493775542815e+00
1.079000000000000000e+03 4.810015410788719414e+00
1.080000000000000000e+03 6.227525609958572517e+00
1.081000000000000000e+03 6.307756201244845151e+00
1.082000000000000000e+03 8.320009221991744752e+00
1.083000000000000000e+03 5.407751896265707181e+00
1.084000000000000000e+03 7.077490352697165754e+00
1.085000000000000000e+03 4.174395834024924312e+00
1.086000000000000000e+03 6.968156867220222317e+00
1.087000000000000000e+03 1.088922477178415704e+01
1.088000000000000000e+03 8.036968215767597457e+00
1.089000000000000000e+03 7.573049962656280165e+00
1.090000000000000000e+03 1.008187187759371817e+01
1.091000000000000000e+03 4.400932414937859249e+00
1.092000000000000000e+03 2.087951458506333680e+00
1.093000000000000000e+03 8.087426801242198593e+00
1.094000000000000000e+03 1.935139348547781690e+00
1.095000000000000000e+03 5.433113240664137145e+00
1.096000000000000000e+03 7.601425116182449315e+00
1.097000000000000000e+03 4.995660120332212628e+00
1.098000000000000000e+03 7.457945570539409097e+00
1.099000000000000000e+03 6.487650091285597220e+00
1.100000000000000000e+03 1.292747753112722719e+00
1.101000000000000000e+03 7.968993770186581393e+00
1.102000000000000000e+03 2.152980692946030228e+00
1.103000000000000000e+03 4.211158360995860050e+00
1.104000000000000000e+03 1.823192585062241688e+00
1.105000000000000000e+03 1.138512657971018527e+01
1.106000000000000000e+03 6.675421919086113043e+00
1.107000000000000000e+03 4.638084473028743382e+00
1.108000000000000000e+03 1.086996808091272371e+01
1.109000000000000000e+03 1.193629748962653458e+01
1.110000000000000000e+03 1.036830215767627728e+01
1.111000000000000000e+03 1.045104827385933710e+01
1.112000000000000000e+03 4.857759427385907713e+00
1.113000000000000000e+03 9.138276709543351473e+00
1.114000000000000000e+03 2.155624842323911050e+00
1.115000000000000000e+03 7.160232259335951532e+00
1.116000000000000000e+03 3.830378887966328527e+00
1.117000000000000000e+03 1.464136516597499105e+00
1.118000000000000000e+03 1.168349020747097455e+00
1.119000000000000000e+03 1.221417958506185286e+00
1.120000000000000000e+03 4.953468809129411454e+00
1.121000000000000000e+03 1.305597746887933575e+01
1.122000000000000000e+03 6.572435826086994837e+00
1.123000000000000000e+03 7.199270854771945061e+00
1.124000000000000000e+03 1.468180692945977306e+01
1.125000000000000000e+03 5.891904875512513629e-01
1.126000000000000000e+03 1.126361699793183346e+00
1.127000000000000000e+03 1.385443784232399977e+01
1.128000000000000000e+03 1.513465751037398555e+01
1.129000000000000000e+03 9.564124917012462035e+00
1.130000000000000000e+03 1.158380660869616108e+01
1.131000000000000000e+03 1.523591192946124195e+01
1.132000000000000000e+03 1.062725953448304228e+00
1.133000000000000000e+03 1.036664865145261416e+01
1.134000000000000000e+03 8.680020279503526837e+00
1.135000000000000000e+03 7.806894663900295406e+00
1.136000000000000000e+03 7.427321165975095951e+00
1.137000000000000000e+03 1.163404649377642919e+01
1.138000000000000000e+03 1.285148240579806256e+01
1.139000000000000000e+03 5.054772134854826682e+00
1.140000000000000000e+03 3.506549481327834616e+00
1.141000000000000000e+03 6.864286410788834836e+00
1.142000000000000000e+03 1.435900796680549085e+01
1.143000000000000000e+03 2.453250369294580846e+00
1.144000000000000000e+03 5.999116045644054651e+00
1.145000000000000000e+03 1.332681385892084158e+01
1.146000000000000000e+03 1.299749705394200738e+01
1.147000000000000000e+03 6.234393016597005399e+00
1.148000000000000000e+03 1.408000551867183425e+00
1.149000000000000000e+03 1.323517757261573946e+00
1.150000000000000000e+03 2.623832784232385418e+00
1.151000000000000000e+03 2.996148881987851453e+00
1.152000000000000000e+03 1.264819323651437344e+01
1.153000000000000000e+03 1.232132294605814060e+01
1.154000000000000000e+03 7.533320526970729958e+00
1.155000000000000000e+03 3.659410028985432550e+00
1.156000000000000000e+03 5.072004464730162532e+00
1.157000000000000000e+03 5.639092105809077715e+00
1.158000000000000000e+03 6.636018875519201998e+00
1.159000000000000000e+03 6.466831622407205771e+00
1.160000000000000000e+03 2.875686556016605167e+00
1.161000000000000000e+03 6.660747481327793373e+00
1.162000000000000000e+03 3.391829207468990415e+00
1.163000000000000000e+03 1.075386856431506999e+01
1.164000000000000000e+03 9.908065639004014713e+00
1.165000000000000000e+03 2.408351151451842753e+00
1.166000000000000000e+03 1.195674624481394943e+00
1.167000000000000000e+03 4.633250416149060413e+00
1.168000000000000000e+03 3.537624493775715528e+00
1.169000000000000000e+03 2.500664572614398118e+00
1.170000000000000000e+03 4.628418522821594827e+00
1.171000000000000000e+03 6.311593331950485997e+00
1.172000000000000000e+03 1.121228753623195118e+01
1.173000000000000000e+03 1.550294759336428685e+00
1.174000000000000000e+03 5.109329502074508866e-01
1.175000000000000000e+03 1.040638621576835732e+01
1.176000000000000000e+03 2.228503877847402670e+00
1.177000000000000000e+03 6.031143161817663412e+00
1.178000000000000000e+03 7.035747987551642879e+00
1.179000000000000000e+03 1.087627601659875332e+01
1.180000000000000000e+03 1.882242201244828550e+01
1.181000000000000000e+03 1.459388790456421248e+01
1.182000000000000000e+03 1.152624711618249798e+01
1.183000000000000000e+03 1.099943184647311689e+01
1.184000000000000000e+03 1.067023130434782097e+01
1.185000000000000000e+03 1.140947070539424502e+01
1.186000000000000000e+03 1.226089236514521730e+01
1.187000000000000000e+03 1.411332323651443588e+01
1.188000000000000000e+03 1.349349066390037954e+01
1.189000000000000000e+03 9.271225786306438010e+00
1.190000000000000000e+03 7.458284641078798849e+00
1.191000000000000000e+03 1.091737304564312439e+01
1.192000000000000000e+03 1.347974476190458759e+01
1.193000000000000000e+03 1.194869298755106968e+01
1.194000000000000000e+03 1.642688514522844301e+01
1.195000000000000000e+03 6.728384929460315078e+00
1.196000000000000000e+03 1.371009590062125527e+00
1.197000000000000000e+03 5.825889495850273825e+00
1.198000000000000000e+03 1.199169076763489805e+01
1.199000000000000000e+03 1.608767014522838679e+01
1.200000000000000000e+03 1.074348480290470675e+01
1.201000000000000000e+03 1.128978749068300758e+01
1.202000000000000000e+03 1.666857045643148183e+01
1.203000000000000000e+03 1.244293572614057020e+01
1.204000000000000000e+03 8.454160294605989279e+00
1.205000000000000000e+03 7.320868519668719543e+00
1.206000000000000000e+03 6.952565622406857493e+00
1.207000000000000000e+03 9.240946338174371277e+00
1.208000000000000000e+03 6.473059132780067060e+00
1.209000000000000000e+03 1.000407269709565128e+01
1.210000000000000000e+03 7.005226705393970299e+00
1.211000000000000000e+03 7.178578224066171742e+00
1.212000000000000000e+03 8.313346224066350487e+00
1.213000000000000000e+03 5.974891625258629269e+00
1.214000000000000000e+03 6.517666136929225473e+00
1.215000000000000000e+03 9.021915867219911789e+00
1.216000000000000000e+03 8.936838713692988989e+00
1.217000000000000000e+03 8.835106730290751997e+00
1.218000000000000000e+03 1.659561813278068509e+00
1.219000000000000000e+03 1.046675626556033656e+01
1.220000000000000000e+03 1.205556556016598257e+01
1.221000000000000000e+03 1.303788838509328940e+01
1.222000000000000000e+03 6.201490170124412948e+00
1.223000000000000000e+03 4.606539609958913317e+00
1.224000000000000000e+03 9.415235529045316909e+00
1.225000000000000000e+03 1.296960051759824140e+01
1.226000000000000000e+03 1.659759477178442211e+01
1.227000000000000000e+03 1.567068556016626601e+01
1.228000000000000000e+03 6.599928784232762524e+00
1.229000000000000000e+03 6.071694904564313156e+00
1.230000000000000000e+03 1.094925358921194025e+01
1.231000000000000000e+03 5.037524603735039186e+00
1.232000000000000000e+03 4.398305966804921141e+00
1.233000000000000000e+03 7.367608813278164526e+00
1.234000000000000000e+03 1.207487904564288783e+01
1.235000000000000000e+03 8.460000082987962244e+00
1.236000000000000000e+03 3.904994008298779740e+00
1.237000000000000000e+03 6.217131535269947662e+00
1.238000000000000000e+03 5.281133883817910046e+00
1.239000000000000000e+03 1.999133547717875381e-01
1.240000000000000000e+03 3.676755300830242490e+00
1.241000000000000000e+03 9.067980896265646962e+00
1.242000000000000000e+03 6.536103643893638182e-01
1.243000000000000000e+03 1.605253672199222592e+01
1.244000000000000000e+03 7.432094730289064977e+00
1.245000000000000000e+03 4.724619676348333464e+00
1.246000000000000000e+03 1.241895062111792214e+01
1.247000000000000000e+03 1.296379966804938100e+01
1.248000000000000000e+03 6.213134350622931734e+00
1.249000000000000000e+03 6.732697375518231553e+00
1.250000000000000000e+03 1.475930593361002785e+01
1.251000000000000000e+03 1.488015336099579855e+01
1.252000000000000000e+03 8.530385535270266217e+00
1.253000000000000000e+03 3.543517356846467070e+00
1.254000000000000000e+03 1.242407796680527277e+01
1.255000000000000000e+03 8.722855591286830190e+00
1.256000000000000000e+03 7.153429639004149188e+00
1.257000000000000000e+03 7.737936060165992558e+00
1.258000000000000000e+03 2.577270589210908902e+00
1.259000000000000000e+03 8.770365311202876768e+00
1.260000000000000000e+03 1.042121094190861363e+01
1.261000000000000000e+03 5.334847522821527299e+00
1.262000000000000000e+03 2.733613622407111698e+00
1.263000000000000000e+03 5.824176472049187758e+00
1.264000000000000000e+03 1.767116060165935920e+01
1.265000000000000000e+03 8.801980248962605557e+00
1.266000000000000000e+03 5.847632578838320327e+00
1.267000000000000000e+03 3.280689786749450665e+00
1.268000000000000000e+03 3.758453879668298026e+00
1.269000000000000000e+03 1.259970557676284031e+01
1.270000000000000000e+03 7.919844547718032146e+00
1.271000000000000000e+03 4.523095590062097493e+00
1.272000000000000000e+03 8.306094904563728676e+00
1.273000000000000000e+03 5.522239072614369526e+00
1.274000000000000000e+03 5.710678236514740824e+00
1.275000000000000000e+03 7.698160509316244848e+00
1.276000000000000000e+03 1.327903863070482915e+00
1.277000000000000000e+03 4.459112867219908516e+00
1.278000000000000000e+03 5.716044954356797270e+00
1.279000000000000000e+03 3.348101352697065103e+00
1.280000000000000000e+03 2.585317053941963428e-01
1.281000000000000000e+03 9.962748692946417961e+00
1.282000000000000000e+03 1.442879292531130986e+01
1.283000000000000000e+03 9.583325151452765311e+00
1.284000000000000000e+03 8.564000419087161475e+00
1.285000000000000000e+03 8.111202427385773461e+00
1.286000000000000000e+03 2.185189875519097491e+00
1.287000000000000000e+03 0.000000000000000000e+00
1.288000000000000000e+03 0.000000000000000000e+00
1.289000000000000000e+03 0.000000000000000000e+00
1.290000000000000000e+03 0.000000000000000000e+00
1.291000000000000000e+03 0.000000000000000000e+00
1.292000000000000000e+03 0.000000000000000000e+00
1.293000000000000000e+03 0.000000000000000000e+00
1.294000000000000000e+03 0.000000000000000000e+00
1.295000000000000000e+03 0.000000000000000000e+00
1.296000000000000000e+03 0.000000000000000000e+00
1.297000000000000000e+03 0.000000000000000000e+00
1.298000000000000000e+03 0.000000000000000000e+00
1.299000000000000000e+03 0.000000000000000000e+00
1.300000000000000000e+03 0.000000000000000000e+00
1.301000000000000000e+03 0.000000000000000000e+00
1.302000000000000000e+03 0.000000000000000000e+00
1.303000000000000000e+03 0.000000000000000000e+00
1.304000000000000000e+03 0.000000000000000000e+00
1.305000000000000000e+03 0.000000000000000000e+00
1.306000000000000000e+03 0.000000000000000000e+00
1.307000000000000000e+03 0.000000000000000000e+00
1.308000000000000000e+03 0.000000000000000000e+00
1.309000000000000000e+03 0.000000000000000000e+00
1.310000000000000000e+03 0.000000000000000000e+00
1.311000000000000000e+03 0.000000000000000000e+00
1.312000000000000000e+03 0.000000000000000000e+00
1.313000000000000000e+03 0.000000000000000000e+00
1.314000000000000000e+03 0.000000000000000000e+00
1.315000000000000000e+03 0.000000000000000000e+00
1.316000000000000000e+03 0.000000000000000000e+00
1.317000000000000000e+03 0.000000000000000000e+00
1.318000000000000000e+03 0.000000000000000000e+00
1.319000000000000000e+03 0.000000000000000000e+00
1.320000000000000000e+03 0.000000000000000000e+00
1.321000000000000000e+03 0.000000000000000000e+00
1.322000000000000000e+03 0.000000000000000000e+00
1.323000000000000000e+03 0.000000000000000000e+00
1.324000000000000000e+03 0.000000000000000000e+00
1.325000000000000000e+03 0.000000000000000000e+00
1.326000000000000000e+03 0.000000000000000000e+00
1.327000000000000000e+03 0.000000000000000000e+00
1.328000000000000000e+03 0.000000000000000000e+00
1.329000000000000000e+03 0.000000000000000000e+00
1.330000000000000000e+03 0.000000000000000000e+00
1.331000000000000000e+03 0.000000000000000000e+00
1.332000000000000000e+03 0.000000000000000000e+00
1.333000000000000000e+03 0.000000000000000000e+00
1.334000000000000000e+03 0.000000000000000000e+00
1.335000000000000000e+03 0.000000000000000000e+00
1.336000000000000000e+03 0.000000000000000000e+00
1.337000000000000000e+03 0.000000000000000000e+00
1.338000000000000000e+03 0.000000000000000000e+00
1.339000000000000000e+03 0.000000000000000000e+00
1.340000000000000000e+03 0.000000000000000000e+00
1.341000000000000000e+03 0.000000000000000000e+00
1.342000000000000000e+03 0.000000000000000000e+00
1.343000000000000000e+03 0.000000000000000000e+00
1.344000000000000000e+03 0.000000000000000000e+00
1.345000000000000000e+03 0.000000000000000000e+00
1.346000000000000000e+03 0.000000000000000000e+00
1.347000000000000000e+03 0.000000000000000000e+00
1.348000000000000000e+03 0.000000000000000000e+00
1.349000000000000000e+03 0.000000000000000000e+00
1.350000000000000000e+03 0.000000000000000000e+00
1.351000000000000000e+03 0.000000000000000000e+00
1.352000000000000000e+03 0.000000000000000000e+00
1.353000000000000000e+03 0.000000000000000000e+00
1.354000000000000000e+03 0.000000000000000000e+00
1.355000000000000000e+03 0.000000000000000000e+00
1.356000000000000000e+03 0.000000000000000000e+00
1.357000000000000000e+03 0.000000000000000000e+00
1.358000000000000000e+03 0.000000000000000000e+00
1.359000000000000000e+03 0.000000000000000000e+00
1.360000000000000000e+03 0.000000000000000000e+00
1.361000000000000000e+03 0.000000000000000000e+00
1.362000000000000000e+03 0.000000000000000000e+00
1.363000000000000000e+03 0.000000000000000000e+00
1.364000000000000000e+03 0.000000000000000000e+00
1.365000000000000000e+03 0.000000000000000000e+00
1.366000000000000000e+03 0.000000000000000000e+00
1.367000000000000000e+03 0.000000000000000000e+00
1.368000000000000000e+03 0.000000000000000000e+00
1.369000000000000000e+03 0.000000000000000000e+00
1.370000000000000000e+03 0.000000000000000000e+00
1.371000000000000000e+03 0.000000000000000000e+00
1.372000000000000000e+03 0.000000000000000000e+00
1.373000000000000000e+03 0.000000000000000000e+00
1.374000000000000000e+03 0.000000000000000000e+00
1.375000000000000000e+03 0.000000000000000000e+00
1.376000000000000000e+03 0.000000000000000000e+00
1.377000000000000000e+03 0.000000000000000000e+00
1.378000000000000000e+03 0.000000000000000000e+00
1.379000000000000000e+03 0.000000000000000000e+00
1.380000000000000000e+03 0.000000000000000000e+00
1.381000000000000000e+03 0.000000000000000000e+00
1.382000000000000000e+03 0.000000000000000000e+00
1.383000000000000000e+03 0.000000000000000000e+00
1.384000000000000000e+03 0.000000000000000000e+00
1.385000000000000000e+03 0.000000000000000000e+00
1.386000000000000000e+03 0.000000000000000000e+00
1.387000000000000000e+03 0.000000000000000000e+00
1.388000000000000000e+03 0.000000000000000000e+00
1.389000000000000000e+03 0.000000000000000000e+00
1.390000000000000000e+03 0.000000000000000000e+00
1.391000000000000000e+03 0.000000000000000000e+00
1.392000000000000000e+03 0.000000000000000000e+00
1.393000000000000000e+03 0.000000000000000000e+00
1.394000000000000000e+03 0.000000000000000000e+00
1.395000000000000000e+03 0.000000000000000000e+00
1.396000000000000000e+03 0.000000000000000000e+00
1.397000000000000000e+03 0.000000000000000000e+00
1.398000000000000000e+03 0.000000000000000000e+00
1.399000000000000000e+03 0.000000000000000000e+00
1.400000000000000000e+03 0.000000000000000000e+00
1.401000000000000000e+03 0.000000000000000000e+00
1.402000000000000000e+03 0.000000000000000000e+00
1.403000000000000000e+03 0.000000000000000000e+00
1.404000000000000000e+03 0.000000000000000000e+00
1.405000000000000000e+03 0.000000000000000000e+00
1.406000000000000000e+03 0.000000000000000000e+00
1.407000000000000000e+03 0.000000000000000000e+00
1.408000000000000000e+03 0.000000000000000000e+00
1.409000000000000000e+03 0.000000000000000000e+00
1.410000000000000000e+03 0.000000000000000000e+00
1.411000000000000000e+03 0.000000000000000000e+00
1.412000000000000000e+03 0.000000000000000000e+00
1.413000000000000000e+03 0.000000000000000000e+00
1.414000000000000000e+03 0.000000000000000000e+00
1.415000000000000000e+03 0.000000000000000000e+00
1.416000000000000000e+03 0.000000000000000000e+00
1.417000000000000000e+03 0.000000000000000000e+00
1.418000000000000000e+03 0.000000000000000000e+00
1.419000000000000000e+03 0.000000000000000000e+00
1.420000000000000000e+03 0.000000000000000000e+00
1.421000000000000000e+03 0.000000000000000000e+00
1.422000000000000000e+03 0.000000000000000000e+00
1.423000000000000000e+03 0.000000000000000000e+00
1.424000000000000000e+03 0.000000000000000000e+00
1.425000000000000000e+03 0.000000000000000000e+00
1.426000000000000000e+03 0.000000000000000000e+00
1.427000000000000000e+03 0.000000000000000000e+00
1.428000000000000000e+03 0.000000000000000000e+00
1.429000000000000000e+03 0.000000000000000000e+00
1.430000000000000000e+03 0.000000000000000000e+00
1.431000000000000000e+03 0.000000000000000000e+00
1.432000000000000000e+03 0.000000000000000000e+00
1.433000000000000000e+03 0.000000000000000000e+00
1.434000000000000000e+03 0.000000000000000000e+00
1.435000000000000000e+03 0.000000000000000000e+00
1.436000000000000000e+03 0.000000000000000000e+00
1.437000000000000000e+03 0.000000000000000000e+00
1.438000000000000000e+03 0.000000000000000000e+00
1.439000000000000000e+03 0.000000000000000000e+00
1.440000000000000000e+03 0.000000000000000000e+00
1.441000000000000000e+03 0.000000000000000000e+00
1.442000000000000000e+03 0.000000000000000000e+00
1.443000000000000000e+03 0.000000000000000000e+00
1.444000000000000000e+03 0.000000000000000000e+00
1.445000000000000000e+03 0.000000000000000000e+00
1.446000000000000000e+03 0.000000000000000000e+00
1.447000000000000000e+03 0.000000000000000000e+00
1.448000000000000000e+03 0.000000000000000000e+00
1.449000000000000000e+03 0.000000000000000000e+00
1.450000000000000000e+03 0.000000000000000000e+00
1.451000000000000000e+03 0.000000000000000000e+00
1.452000000000000000e+03 0.000000000000000000e+00
1.453000000000000000e+03 0.000000000000000000e+00
1.454000000000000000e+03 0.000000000000000000e+00
1.455000000000000000e+03 0.000000000000000000e+00
1.456000000000000000e+03 0.000000000000000000e+00
1.457000000000000000e+03 0.000000000000000000e+00
1.458000000000000000e+03 0.000000000000000000e+00
1.459000000000000000e+03 0.000000000000000000e+00
1.460000000000000000e+03 0.000000000000000000e+00
1.461000000000000000e+03 0.000000000000000000e+00
1.462000000000000000e+03 0.000000000000000000e+00
1.463000000000000000e+03 0.000000000000000000e+00
1.464000000000000000e+03 0.000000000000000000e+00
1.465000000000000000e+03 0.000000000000000000e+00
1.466000000000000000e+03 0.000000000000000000e+00
1.467000000000000000e+03 0.000000000000000000e+00
1.468000000000000000e+03 0.000000000000000000e+00
1.469000000000000000e+03 0.000000000000000000e+00
1.470000000000000000e+03 0.000000000000000000e+00
1.471000000000000000e+03 0.000000000000000000e+00
1.472000000000000000e+03 0.000000000000000000e+00
1.473000000000000000e+03 0.000000000000000000e+00
1.474000000000000000e+03 0.000000000000000000e+00
1.475000000000000000e+03 0.000000000000000000e+00
1.476000000000000000e+03 0.000000000000000000e+00
1.477000000000000000e+03 0.000000000000000000e+00
1.478000000000000000e+03 0.000000000000000000e+00
1.479000000000000000e+03 0.000000000000000000e+00
1.480000000000000000e+03 0.000000000000000000e+00
1.481000000000000000e+03 0.000000000000000000e+00
1.482000000000000000e+03 0.000000000000000000e+00
1.483000000000000000e+03 0.000000000000000000e+00
1.484000000000000000e+03 0.000000000000000000e+00
1.485000000000000000e+03 0.000000000000000000e+00
1.486000000000000000e+03 0.000000000000000000e+00
1.487000000000000000e+03 0.000000000000000000e+00
1.488000000000000000e+03 0.000000000000000000e+00
1.489000000000000000e+03 0.000000000000000000e+00
1.490000000000000000e+03 0.000000000000000000e+00
1.491000000000000000e+03 0.000000000000000000e+00
1.492000000000000000e+03 0.000000000000000000e+00
1.493000000000000000e+03 0.000000000000000000e+00
1.494000000000000000e+03 0.000000000000000000e+00
1.495000000000000000e+03 0.000000000000000000e+00
1.496000000000000000e+03 0.000000000000000000e+00
1.497000000000000000e+03 0.000000000000000000e+00
1.498000000000000000e+03 0.000000000000000000e+00
1.499000000000000000e+03 0.000000000000000000e+00
1.500000000000000000e+03 0.000000000000000000e+00
