1.010000000000000000e+02 0.000000000000000000e+00
1.020000000000000000e+02 0.000000000000000000e+00
1.030000000000000000e+02 0.000000000000000000e+00
1.040000000000000000e+02 0.000000000000000000e+00
1.050000000000000000e+02 0.000000000000000000e+00
1.060000000000000000e+02 0.000000000000000000e+00
1.070000000000000000e+02 0.000000000000000000e+00
1.080000000000000000e+02 0.000000000000000000e+00
1.090000000000000000e+02 0.000000000000000000e+00
1.100000000000000000e+02 0.000000000000000000e+00
1.110000000000000000e+02 0.000000000000000000e+00
1.120000000000000000e+02 0.000000000000000000e+00
1.130000000000000000e+02 0.000000000000000000e+00
1.140000000000000000e+02 0.000000000000000000e+00
1.150000000000000000e+02 0.000000000000000000e+00
1.160000000000000000e+02 0.000000000000000000e+00
1.170000000000000000e+02 0.000000000000000000e+00
1.180000000000000000e+02 0.000000000000000000e+00
1.190000000000000000e+02 0.000000000000000000e+00
1.200000000000000000e+02 0.000000000000000000e+00
1.210000000000000000e+02 0.000000000000000000e+00
1.220000000000000000e+02 0.000000000000000000e+00
1.230000000000000000e+02 7.987359263223400063e+00
1.240000000000000000e+02 2.267161250363016300e+00
1.250000000000000000e+02 1.882831392783084201e+00
1.260000000000000000e+02 2.470837163658978497e+01
1.270000000000000000e+02 5.897671252022404076e+01
1.280000000000000000e+02 6.367472577975944148e+01
1.290000000000000000e+02 6.777478225886746088e+01
1.300000000000000000e+02 7.779699862684083200e+01
1.310000000000000000e+02 8.060319703027811045e+01
1.320000000000000000e+02 4.030817424393235626e+01
1.330000000000000000e+02 7.505496997925620306e+00
1.340000000000000000e+02 9.338488763998295639e+00
1.350000000000000000e+02 1.048500544492847553e+01
1.360000000000000000e+02 4.630581306783073003e+00
1.370000000000000000e+02 2.430064540647056504e+01
1.380000000000000000e+02 6.315795080481223067e+01
1.390000000000000000e+02 9.445200879485588530e+01
1.400000000000000000e+02 8.350818175860642611e+01
1.410000000000000000e+02 7.985421046670819578e+01
1.420000000000000000e+02 9.944383384360098432e+01
1.430000000000000000e+02 1.177850030485275852e+02
1.440000000000000000e+02 1.152331726405309951e+02
1.450000000000000000e+02 1.230573365899192311e+02
1.460000000000000000e+02 1.470505883634101565e+02
1.470000000000000000e+02 1.476061508815598984e+02
1.480000000000000000e+02 1.158251480190834144e+02
1.490000000000000000e+02 1.055030966604438163e+02
1.500000000000000000e+02 1.025205104542626486e+02
1.510000000000000000e+02 1.277865468477809827e+02
1.520000000000000000e+02 1.628650473345780085e+02
1.530000000000000000e+02 1.538615579755236809e+02
1.540000000000000000e+02 2.025938231439240838e+02
1.550000000000000000e+02 2.287478855009334211e+02
1.560000000000000000e+02 2.339979480398256726e+02
1.570000000000000000e+02 2.715964080066369775e+02
1.580000000000000000e+02 3.643525824725170423e+02
1.590000000000000000e+02 5.001738131300564874e+02
1.600000000000000000e+02 6.840107994192071601e+02
1.610000000000000000e+02 9.298092345364001403e+02
1.620000000000000000e+02 1.252345471686376186e+03
1.630000000000000000e+02 1.646256059726257263e+03
1.640000000000000000e+02 2.095625023024267648e+03
1.650000000000000000e+02 2.581787050404476759e+03
1.660000000000000000e+02 3.065200908751551651e+03
1.670000000000000000e+02 3.664187075917863240e+03
1.680000000000000000e+02 4.359213823895457608e+03
1.690000000000000000e+02 5.172437513479878362e+03
1.700000000000000000e+02 6.134211969508402944e+03
1.710000000000000000e+02 7.077328331466508644e+03
1.720000000000000000e+02 7.407629312940688578e+03
1.730000000000000000e+02 6.780293160547609659e+03
1.740000000000000000e+02 5.306454770172179451e+03
1.750000000000000000e+02 3.754266874325994650e+03
1.760000000000000000e+02 2.560108274839240948e+03
1.770000000000000000e+02 1.751416644679528190e+03
1.780000000000000000e+02 1.248184313148073898e+03
1.790000000000000000e+02 9.892335193528289210e+02
1.800000000000000000e+02 8.077919610869103053e+02
1.810000000000000000e+02 6.735527794276233635e+02
1.820000000000000000e+02 5.777809005600503269e+02
1.830000000000000000e+02 4.988147652354292632e+02
1.840000000000000000e+02 4.385939973869759569e+02
1.850000000000000000e+02 4.039547009541588523e+02
1.860000000000000000e+02 3.751904002489111463e+02
1.870000000000000000e+02 3.298279708212365335e+02
1.880000000000000000e+02 2.892323183571868981e+02
1.890000000000000000e+02 2.567969418170502536e+02
1.900000000000000000e+02 2.344574129226301977e+02
1.910000000000000000e+02 2.197603097697574981e+02
1.920000000000000000e+02 1.976089640531006921e+02
1.930000000000000000e+02 1.759307000414850677e+02
1.940000000000000000e+02 1.632630900643020198e+02
1.950000000000000000e+02 1.470324769135036718e+02
1.960000000000000000e+02 1.003662792283759160e+02
1.970000000000000000e+02 7.122417140634705390e+01
1.980000000000000000e+02 3.940351430616046002e+01
1.990000000000000000e+02 1.001832816466206921e+01
2.000000000000000000e+02 4.622277003733673340e+00
2.010000000000000000e+02 9.683698277950686162e+00
2.020000000000000000e+02 1.000404293114893051e+01
2.030000000000000000e+02 3.104780904584106338e+01
2.040000000000000000e+02 3.254732443683882792e+01
2.050000000000000000e+02 3.261804033602989250e+01
2.060000000000000000e+02 3.648643519394317281e+01
2.070000000000000000e+02 3.320981899813316573e+01
2.080000000000000000e+02 1.646643374942978966e+01
2.090000000000000000e+02 7.509035336652115866e+00
2.100000000000000000e+02 1.705750955818302117e+01
2.110000000000000000e+02 3.671424272764986085e+01
2.120000000000000000e+02 7.327070890479130583e+01
2.130000000000000000e+02 1.195022417548221085e+02
2.140000000000000000e+02 1.725598053515873289e+02
2.150000000000000000e+02 2.458732940468784989e+02
2.160000000000000000e+02 3.538620484131919852e+02
2.170000000000000000e+02 4.973779584733441652e+02
2.180000000000000000e+02 6.506607861232129153e+02
2.190000000000000000e+02 8.205021171541186504e+02
2.200000000000000000e+02 1.055390493673510946e+03
2.210000000000000000e+02 1.342861292263013866e+03
2.220000000000000000e+02 1.642629980087118156e+03
2.230000000000000000e+02 2.042131173615435273e+03
2.240000000000000000e+02 2.548751940053931321e+03
2.250000000000000000e+02 3.150986687616673862e+03
2.260000000000000000e+02 3.809858389753167558e+03
2.270000000000000000e+02 4.453025790914753998e+03
2.280000000000000000e+02 5.123894999170299343e+03
2.290000000000000000e+02 5.781568859365273966e+03
2.300000000000000000e+02 6.429335298278358096e+03
2.310000000000000000e+02 7.127245187888852342e+03
2.320000000000000000e+02 8.016490971375236768e+03
2.330000000000000000e+02 8.977637835096451454e+03
2.340000000000000000e+02 9.706537573620900730e+03
2.350000000000000000e+02 9.839184833022189196e+03
2.360000000000000000e+02 9.063656163658984951e+03
2.370000000000000000e+02 7.641083097469930181e+03
2.380000000000000000e+02 6.019284198713971819e+03
2.390000000000000000e+02 4.561820970752972244e+03
2.400000000000000000e+02 3.446583034225254323e+03
2.410000000000000000e+02 2.577244622899812384e+03
2.420000000000000000e+02 1.952593248081313050e+03
2.430000000000000000e+02 1.498277676000833708e+03
2.440000000000000000e+02 1.130792033602984247e+03
2.450000000000000000e+02 8.956582603609201669e+02
2.460000000000000000e+02 7.171989871837414512e+02
2.470000000000000000e+02 5.620375535158696039e+02
2.480000000000000000e+02 4.339304660443895614e+02
2.490000000000000000e+02 3.734365552882617862e+02
2.500000000000000000e+02 3.145842683260734702e+02
2.510000000000000000e+02 2.706093295789257809e+02
2.520000000000000000e+02 2.711746225217753476e+02
2.530000000000000000e+02 3.314381487658167202e+02
2.540000000000000000e+02 4.066925202240200861e+02
2.550000000000000000e+02 5.118370894649515321e+02
2.560000000000000000e+02 6.183524351171969329e+02
2.570000000000000000e+02 7.278928358639305998e+02
2.580000000000000000e+02 9.098571650072562988e+02
2.590000000000000000e+02 1.056917796515250075e+03
2.600000000000000000e+02 1.253063784899403345e+03
2.610000000000000000e+02 1.502525341422936663e+03
2.620000000000000000e+02 1.751423789877613217e+03
2.630000000000000000e+02 1.977796419415058608e+03
2.640000000000000000e+02 2.028070791537026025e+03
2.650000000000000000e+02 1.835646632233980881e+03
2.660000000000000000e+02 1.439404017216354077e+03
2.670000000000000000e+02 9.531070877411325455e+02
2.680000000000000000e+02 6.108288483509661546e+02
2.690000000000000000e+02 3.492289278365511791e+02
2.700000000000000000e+02 1.505201163002889757e+02
2.710000000000000000e+02 3.697160375751895600e+01
2.720000000000000000e+02 3.901331714996874211e+01
2.730000000000000000e+02 9.727367660858831755e+01
2.740000000000000000e+02 1.484128975731182152e+02
2.750000000000000000e+02 1.885946008919312646e+02
2.760000000000000000e+02 1.987641022816842167e+02
2.770000000000000000e+02 1.860289067828248335e+02
2.780000000000000000e+02 1.839922974901474504e+02
2.790000000000000000e+02 1.898164083385189542e+02
2.800000000000000000e+02 1.805692180875334714e+02
2.810000000000000000e+02 1.482589042314863832e+02
2.820000000000000000e+02 1.136700059738647894e+02
2.830000000000000000e+02 7.654114871188623681e+01
2.840000000000000000e+02 3.208717424305388022e+01
2.850000000000000000e+02 2.617943823065709097e+01
2.860000000000000000e+02 1.313991276913492925e+02
2.870000000000000000e+02 2.139978436540847895e+02
2.880000000000000000e+02 3.063941366936325608e+02
2.890000000000000000e+02 4.486203023024266372e+02
2.900000000000000000e+02 5.860701991289927264e+02
2.910000000000000000e+02 6.936778233354087888e+02
2.920000000000000000e+02 8.195390894212829380e+02
2.930000000000000000e+02 9.688279950642913718e+02
2.940000000000000000e+02 1.101773727649867851e+03
2.950000000000000000e+02 1.205472623522092135e+03
2.960000000000000000e+02 1.282383515138945313e+03
2.970000000000000000e+02 1.339037056004976876e+03
2.980000000000000000e+02 1.408238195395149432e+03
2.990000000000000000e+02 1.569272711678072028e+03
3.000000000000000000e+02 1.839073187305531974e+03
3.010000000000000000e+02 2.228293708359250559e+03
3.020000000000000000e+02 2.745248006430198529e+03
3.030000000000000000e+02 3.382079278158052148e+03
3.040000000000000000e+02 4.078142652769124652e+03
3.050000000000000000e+02 4.759685748599878934e+03
3.060000000000000000e+02 5.564806232109520352e+03
3.070000000000000000e+02 6.568941464633886426e+03
3.080000000000000000e+02 7.720437645301820339e+03
3.090000000000000000e+02 9.028667550715630568e+03
3.100000000000000000e+02 1.037306664737606661e+04
3.110000000000000000e+02 1.136681569888013109e+04
3.120000000000000000e+02 1.150095704418169043e+04
3.130000000000000000e+02 1.027813385189792825e+04
3.140000000000000000e+02 8.315843304023230303e+03
3.150000000000000000e+02 6.426994471686331053e+03
3.160000000000000000e+02 4.994625024476226827e+03
3.170000000000000000e+02 4.031490019079220474e+03
3.180000000000000000e+02 3.529736024268831898e+03
3.190000000000000000e+02 3.308782269653598178e+03
3.200000000000000000e+02 3.317748999170468778e+03
3.210000000000000000e+02 3.530332285417959156e+03
3.220000000000000000e+02 3.883413042314865379e+03
3.230000000000000000e+02 4.307643390087099760e+03
3.240000000000000000e+02 4.675795647998337699e+03
3.250000000000000000e+02 4.728860716241447335e+03
3.260000000000000000e+02 4.366766336444716217e+03
3.270000000000000000e+02 3.859475304915990819e+03
3.280000000000000000e+02 3.330871350549679846e+03
3.290000000000000000e+02 2.990219110972823728e+03
3.300000000000000000e+02 2.843345050819330936e+03
3.310000000000000000e+02 2.797446316739265967e+03
3.320000000000000000e+02 2.868635622277538914e+03
3.330000000000000000e+02 3.051355127359473954e+03
3.340000000000000000e+02 3.295424503629955780e+03
3.350000000000000000e+02 3.599822424185846103e+03
3.360000000000000000e+02 4.007526262601107192e+03
3.370000000000000000e+02 4.577321139805034363e+03
3.380000000000000000e+02 5.375648804812267372e+03
3.390000000000000000e+02 6.330632690935472056e+03
3.400000000000000000e+02 7.425450706553270720e+03
3.410000000000000000e+02 8.836949435594267925e+03
3.420000000000000000e+02 1.030631446587843311e+04
3.430000000000000000e+02 1.187983810452093530e+04
3.440000000000000000e+02 1.364787808338519608e+04
3.450000000000000000e+02 1.569837400124455235e+04
3.460000000000000000e+02 1.806548883658235354e+04
3.470000000000000000e+02 2.069495045426263459e+04
3.480000000000000000e+02 2.351856066168846519e+04
3.490000000000000000e+02 2.635733980506020453e+04
3.500000000000000000e+02 2.878172541381460542e+04
3.510000000000000000e+02 2.982140685542419669e+04
3.520000000000000000e+02 2.948479377100185593e+04
3.530000000000000000e+02 2.791094563990877577e+04
3.540000000000000000e+02 2.581975361543244071e+04
3.550000000000000000e+02 2.437015168844636355e+04
3.560000000000000000e+02 2.380779194565442958e+04
3.570000000000000000e+02 2.431584518979462518e+04
3.580000000000000000e+02 2.578860732420659406e+04
3.590000000000000000e+02 2.809477489732417962e+04
3.600000000000000000e+02 3.117733211781783029e+04
3.610000000000000000e+02 3.473868670607750391e+04
3.620000000000000000e+02 3.866254270898153482e+04
3.630000000000000000e+02 4.307815639079026732e+04
3.640000000000000000e+02 4.788220038996053336e+04
3.650000000000000000e+02 5.249958003733668738e+04
3.660000000000000000e+02 5.702956719352832442e+04
3.670000000000000000e+02 6.087259590626296267e+04
3.680000000000000000e+02 6.308108471064095647e+04
3.690000000000000000e+02 6.280260013275252277e+04
3.700000000000000000e+02 5.953179675445876637e+04
3.710000000000000000e+02 5.373126328562521667e+04
3.720000000000000000e+02 4.642487816428110818e+04
3.730000000000000000e+02 3.871385727498967026e+04
3.740000000000000000e+02 3.167601163244155396e+04
3.750000000000000000e+02 2.578374314042721744e+04
3.760000000000000000e+02 2.112247768975530198e+04
3.770000000000000000e+02 1.750690253889239466e+04
3.780000000000000000e+02 1.473313967434147344e+04
3.790000000000000000e+02 1.265274646753785601e+04
3.800000000000000000e+02 1.109963553619581762e+04
3.810000000000000000e+02 9.944201617921604338e+03
3.820000000000000000e+02 8.893983884256369493e+03
3.830000000000000000e+02 7.743229041277739270e+03
3.840000000000000000e+02 6.539602604646341206e+03
3.850000000000000000e+02 5.540877835718714778e+03
3.860000000000000000e+02 4.649545386434339889e+03
3.870000000000000000e+02 3.929873979879689159e+03
3.880000000000000000e+02 3.411620815183558989e+03
3.890000000000000000e+02 2.938803873677651154e+03
3.900000000000000000e+02 2.544131193528307904e+03
3.910000000000000000e+02 2.234482294959558203e+03
3.920000000000000000e+02 1.967415282721434096e+03
3.930000000000000000e+02 1.723643614395349687e+03
3.940000000000000000e+02 1.568818728686996337e+03
3.950000000000000000e+02 1.418215705662728624e+03
3.960000000000000000e+02 1.248711706077581539e+03
3.970000000000000000e+02 1.108065683675586342e+03
3.980000000000000000e+02 1.027289458825970769e+03
3.990000000000000000e+02 9.160366624144385241e+02
4.000000000000000000e+02 8.353685487243308216e+02
4.010000000000000000e+02 7.458313270690730405e+02
4.020000000000000000e+02 6.677790151006018959e+02
4.030000000000000000e+02 6.291245910806879920e+02
4.040000000000000000e+02 5.479869025513373799e+02
4.050000000000000000e+02 5.105319268409043616e+02
4.060000000000000000e+02 4.653358711678060899e+02
4.070000000000000000e+02 3.970160255341203879e+02
4.080000000000000000e+02 3.332318065947737864e+02
4.090000000000000000e+02 3.039215255133793221e+02
4.100000000000000000e+02 2.609021562538879948e+02
4.110000000000000000e+02 2.192046862712565485e+02
4.120000000000000000e+02 1.665256626426067328e+02
4.130000000000000000e+02 8.515247762912414942e+01
4.140000000000000000e+02 4.126641746992988402e+01
4.150000000000000000e+02 2.016305111387693927e+01
4.160000000000000000e+02 7.792857216760149086e+00
4.170000000000000000e+02 2.039503155868941420e+01
4.180000000000000000e+02 7.417033520846293015e+01
4.190000000000000000e+02 8.968000874714783777e+01
4.200000000000000000e+02 9.824971992532687182e+01
4.210000000000000000e+02 1.150460705870153362e+02
4.220000000000000000e+02 1.422442800871189661e+02
4.230000000000000000e+02 1.734916784069698394e+02
4.240000000000000000e+02 1.796323967848994698e+02
4.250000000000000000e+02 1.877527961418794007e+02
4.260000000000000000e+02 1.998330336029865464e+02
4.270000000000000000e+02 2.056652192283757756e+02
4.280000000000000000e+02 1.946662362995226374e+02
4.290000000000000000e+02 1.752488462767064448e+02
4.300000000000000000e+02 1.475397382493265752e+02
4.310000000000000000e+02 1.380904889234599295e+02
4.320000000000000000e+02 1.310917326073430331e+02
4.330000000000000000e+02 8.712263055175334614e+01
4.340000000000000000e+02 4.346637356772563265e+01
4.350000000000000000e+02 2.015338702198116039e+01
4.360000000000000000e+02 8.485218682016147795e+01
4.370000000000000000e+02 1.597625428541785197e+02
4.380000000000000000e+02 2.661994032351715873e+02
4.390000000000000000e+02 3.663238926986106208e+02
4.400000000000000000e+02 4.944077728686991122e+02
4.410000000000000000e+02 6.679161956034856757e+02
4.420000000000000000e+02 8.538849938601970280e+02
4.430000000000000000e+02 1.028883391827422884e+03
4.440000000000000000e+02 1.262139748652017261e+03
4.450000000000000000e+02 1.508028193528318752e+03
4.460000000000000000e+02 1.776842029247048458e+03
4.470000000000000000e+02 2.050680084007461573e+03
4.480000000000000000e+02 2.298382425637830238e+03
4.490000000000000000e+02 2.529729415681397768e+03
4.500000000000000000e+02 2.640508939639078562e+03
4.510000000000000000e+02 2.586637314042732214e+03
4.520000000000000000e+02 2.321146456959147145e+03
4.530000000000000000e+02 1.885919849616264173e+03
4.540000000000000000e+02 1.507714640945865767e+03
4.550000000000000000e+02 1.080069843393493784e+03
4.560000000000000000e+02 7.251131831362775984e+02
4.570000000000000000e+02 4.970030231487246510e+02
4.580000000000000000e+02 3.572676641568148170e+02
4.590000000000000000e+02 2.473593910392021940e+02
4.600000000000000000e+02 1.712937813939012983e+02
4.610000000000000000e+02 1.337645362297800773e+02
4.620000000000000000e+02 1.128615483094787919e+02
4.630000000000000000e+02 9.351096013067825652e+01
4.640000000000000000e+02 9.648490129406883398e+01
4.650000000000000000e+02 1.018510627463179929e+02
4.660000000000000000e+02 1.151883932586604828e+02
4.670000000000000000e+02 1.261835993571132235e+02
4.680000000000000000e+02 1.426017397635338568e+02
4.690000000000000000e+02 2.042783975731162229e+02
4.700000000000000000e+02 2.451801656159267111e+02
4.710000000000000000e+02 2.741770899605888872e+02
4.720000000000000000e+02 3.300492098319840011e+02
4.730000000000000000e+02 4.196139598008715552e+02
4.740000000000000000e+02 4.998459303256585144e+02
4.750000000000000000e+02 5.679619841941498635e+02
4.760000000000000000e+02 7.043875595519581339e+02
4.770000000000000000e+02 8.800338685127580902e+02
4.780000000000000000e+02 1.057532057871811276e+03
4.790000000000000000e+02 1.256584579755236746e+03
4.800000000000000000e+02 1.543490533499279309e+03
4.810000000000000000e+02 1.865362784691976231e+03
4.820000000000000000e+02 2.209467533914127671e+03
4.830000000000000000e+02 2.628990060360933057e+03
4.840000000000000000e+02 3.154536698610257645e+03
4.850000000000000000e+02 3.648222796515253322e+03
4.860000000000000000e+02 4.283743801493449610e+03
4.870000000000000000e+02 4.931411030699009643e+03
4.880000000000000000e+02 5.617258319784336891e+03
4.890000000000000000e+02 6.412931473760620065e+03
4.900000000000000000e+02 7.087624793403846525e+03
4.910000000000000000e+02 7.621653087515547668e+03
4.920000000000000000e+02 7.823255758348890595e+03
4.930000000000000000e+02 7.597091241651114615e+03
4.940000000000000000e+02 7.026337386146828067e+03
4.950000000000000000e+02 6.317790820784067364e+03
4.960000000000000000e+02 5.600033078406971072e+03
4.970000000000000000e+02 4.970330399211938129e+03
4.980000000000000000e+02 4.493651730761247563e+03
4.990000000000000000e+02 4.235382537647789832e+03
5.000000000000000000e+02 4.253837744866213143e+03
5.010000000000000000e+02 4.418907294129854563e+03
5.020000000000000000e+02 4.833070087533715196e+03
5.030000000000000000e+02 5.454136313835288092e+03
5.040000000000000000e+02 6.257809924082132966e+03
5.050000000000000000e+02 7.273677788633091041e+03
5.060000000000000000e+02 8.532015177971356024e+03
5.070000000000000000e+02 1.010488843912048105e+04
5.080000000000000000e+02 1.194529042314867729e+04
5.090000000000000000e+02 1.413678541381454852e+04
5.100000000000000000e+02 1.679069720182531819e+04
5.110000000000000000e+02 1.982838539514618606e+04
5.120000000000000000e+02 2.322140749429580319e+04
5.130000000000000000e+02 2.654837139390167431e+04
5.140000000000000000e+02 2.872251547490667144e+04
5.150000000000000000e+02 2.886725657125077123e+04
5.160000000000000000e+02 2.683150666251816801e+04
5.170000000000000000e+02 2.294065095396104516e+04
5.180000000000000000e+02 1.860990127566894807e+04
5.190000000000000000e+02 1.475351271313008692e+04
5.200000000000000000e+02 1.166218324139362812e+04
5.210000000000000000e+02 9.246358786766239064e+03
5.220000000000000000e+02 7.401884747977620464e+03
5.230000000000000000e+02 5.940806048942353300e+03
5.240000000000000000e+02 4.822371691142923737e+03
5.250000000000000000e+02 3.980442400331894532e+03
5.260000000000000000e+02 3.321449337619246762e+03
5.270000000000000000e+02 2.765900396390793503e+03
5.280000000000000000e+02 2.360602751918691865e+03
5.290000000000000000e+02 2.039461277328356800e+03
5.300000000000000000e+02 1.758488805434553342e+03
5.310000000000000000e+02 1.518911087930322765e+03
5.320000000000000000e+02 1.344592881144992134e+03
5.330000000000000000e+02 1.218348439950219927e+03
5.340000000000000000e+02 1.131491043343012279e+03
5.350000000000000000e+02 1.078301739887990379e+03
5.360000000000000000e+02 1.044741345364033123e+03
5.370000000000000000e+02 1.016393727027588284e+03
5.380000000000000000e+02 1.007867282928852774e+03
5.390000000000000000e+02 1.050733810037327203e+03
5.400000000000000000e+02 1.111325263845672907e+03
5.410000000000000000e+02 1.178125681808750414e+03
5.420000000000000000e+02 1.259131488073012861e+03
5.430000000000000000e+02 1.357473449906656242e+03
5.440000000000000000e+02 1.507801769757309103e+03
5.450000000000000000e+02 1.641773842563784228e+03
5.460000000000000000e+02 1.791696752955819420e+03
5.470000000000000000e+02 1.979806182534744721e+03
5.480000000000000000e+02 2.173341656502806018e+03
5.490000000000000000e+02 2.388910116988182381e+03
5.500000000000000000e+02 2.621120400954164779e+03
5.510000000000000000e+02 2.789274596141873189e+03
5.520000000000000000e+02 2.822308971997510071e+03
5.530000000000000000e+02 2.701889598008704979e+03
5.540000000000000000e+02 2.474644265712523065e+03
5.550000000000000000e+02 2.076340683053326757e+03
5.560000000000000000e+02 1.676245162588152198e+03
5.570000000000000000e+02 1.347071418585361698e+03
5.580000000000000000e+02 1.082274491599258909e+03
5.590000000000000000e+02 8.554467026337646303e+02
5.600000000000000000e+02 6.830027148931756074e+02
5.610000000000000000e+02 5.287679218211991383e+02
5.620000000000000000e+02 4.265899160929066625e+02
5.630000000000000000e+02 3.678536144368375744e+02
5.640000000000000000e+02 3.230248455714575471e+02
5.650000000000000000e+02 3.154258746785568519e+02
5.660000000000000000e+02 3.486324588052289641e+02
5.670000000000000000e+02 3.744245999377735643e+02
5.680000000000000000e+02 4.235964354698152761e+02
5.690000000000000000e+02 5.152523680564244160e+02
5.700000000000000000e+02 6.145084882804433164e+02
5.710000000000000000e+02 7.145924373159062952e+02
5.720000000000000000e+02 8.609140746110717828e+02
5.730000000000000000e+02 1.036308410495742464e+03
5.740000000000000000e+02 1.175741073221322722e+03
5.750000000000000000e+02 1.243086867247458713e+03
5.760000000000000000e+02 1.264164321095208834e+03
5.770000000000000000e+02 1.148462660236463080e+03
5.780000000000000000e+02 9.728544671230007452e+02
5.790000000000000000e+02 7.746690075917832701e+02
5.800000000000000000e+02 5.881103383322897571e+02
5.810000000000000000e+02 4.442745329807051462e+02
5.820000000000000000e+02 3.130361294483592474e+02
5.830000000000000000e+02 2.281061108691117738e+02
5.840000000000000000e+02 1.533230671022589036e+02
5.850000000000000000e+02 9.627750262961349392e+01
5.860000000000000000e+02 6.667720856876296409e+01
5.870000000000000000e+02 3.486497789877575570e+01
5.880000000000000000e+02 3.859599496474520919e+01
5.890000000000000000e+02 4.843929075295573483e+01
5.900000000000000000e+02 3.115799134412002402e+01
5.910000000000000000e+02 1.004487637660708366e+01
5.920000000000000000e+02 1.456652592408210900e+01
5.930000000000000000e+02 7.708847573739968873e+00
5.940000000000000000e+02 1.562045224850010960e+00
5.950000000000000000e+02 3.100750859365361123e+01
5.960000000000000000e+02 4.599250390997687532e+01
5.970000000000000000e+02 1.702897583862181818e+01
5.980000000000000000e+02 5.202264262393883953e+00
5.990000000000000000e+02 3.743922691972639427e+01
6.000000000000000000e+02 2.585217830118165949e+01
6.010000000000000000e+02 1.185361911429166604e+01
6.020000000000000000e+02 1.350067342667496639e+01
6.030000000000000000e+02 1.866191504252210720e+01
6.040000000000000000e+02 3.024316642812692990e+01
6.050000000000000000e+02 5.353405455299748539e+00
6.060000000000000000e+02 8.631436375440809883e+00
6.070000000000000000e+02 2.302851014104958693e+01
6.080000000000000000e+02 1.742772546246375498e+01
6.090000000000000000e+02 1.105054897324225571e+01
6.100000000000000000e+02 3.438829795478120133e+01
6.110000000000000000e+02 6.980765917461629044e+01
6.120000000000000000e+02 7.241217368803141596e+01
6.130000000000000000e+02 5.469779734287498485e+01
6.140000000000000000e+02 4.447326598506843709e+01
6.150000000000000000e+02 4.553686128189169580e+01
6.160000000000000000e+02 2.608267166562962913e+01
6.170000000000000000e+02 3.873423046453757479e+01
6.180000000000000000e+02 4.607421372744244792e+01
6.190000000000000000e+02 3.718161215100611372e+01
6.200000000000000000e+02 1.609752646961275957e+01
6.210000000000000000e+02 1.973192587971884038e+01
6.220000000000000000e+02 3.562417344119467799e+01
6.230000000000000000e+02 1.555148732752556029e+01
6.240000000000000000e+02 2.346181240149262237e+01
6.250000000000000000e+02 3.476535203692173326e+01
6.260000000000000000e+02 3.292767875544495837e+01
6.270000000000000000e+02 3.879201634591424863e+01
6.280000000000000000e+02 5.465316735324586972e+01
6.290000000000000000e+02 6.049078212611491523e+01
6.300000000000000000e+02 6.947723553712113187e+01
6.310000000000000000e+02 9.452415315494617687e+01
6.320000000000000000e+02 1.178513714996885540e+02
6.330000000000000000e+02 9.984532479261754645e+01
6.340000000000000000e+02 1.346816260111996826e+02
6.350000000000000000e+02 1.137601205849419870e+02
6.360000000000000000e+02 1.091766153080269390e+02
6.370000000000000000e+02 1.341688657539930603e+02
6.380000000000000000e+02 1.224109273387265944e+02
6.390000000000000000e+02 1.124172790914748390e+02
6.400000000000000000e+02 1.264223406969509824e+02
6.410000000000000000e+02 1.261060464633892195e+02
6.420000000000000000e+02 1.209496237295167873e+02
6.430000000000000000e+02 1.354669552997312394e+02
6.440000000000000000e+02 1.586376530802741343e+02
6.450000000000000000e+02 1.435728255133797120e+02
6.460000000000000000e+02 1.204594500311147840e+02
6.470000000000000000e+02 1.525896642397875667e+02
6.480000000000000000e+02 1.716283044803995779e+02
6.490000000000000000e+02 1.503138011200990718e+02
6.500000000000000000e+02 1.641231149730397476e+02
6.510000000000000000e+02 1.744316956233146243e+02
6.520000000000000000e+02 1.732260562746319579e+02
6.530000000000000000e+02 1.591577697221071901e+02
6.540000000000000000e+02 1.568713306782825612e+02
6.550000000000000000e+02 1.794993829288530094e+02
6.560000000000000000e+02 2.022942183533805576e+02
6.570000000000000000e+02 1.962861627878032209e+02
6.580000000000000000e+02 2.093249349719979762e+02
6.590000000000000000e+02 1.968022900870993510e+02
6.600000000000000000e+02 1.936645169674349916e+02
6.610000000000000000e+02 2.179391053930724809e+02
6.620000000000000000e+02 2.039124510267580774e+02
6.630000000000000000e+02 2.055951186060978273e+02
6.640000000000000000e+02 2.181292178178806864e+02
6.650000000000000000e+02 2.344589770587012083e+02
6.660000000000000000e+02 2.317102775772669361e+02
6.670000000000000000e+02 2.095908365899192916e+02
6.680000000000000000e+02 2.107749467330429241e+02
6.690000000000000000e+02 2.240357676208255384e+02
6.700000000000000000e+02 2.185854809168222914e+02
6.710000000000000000e+02 2.143785221323377073e+02
6.720000000000000000e+02 2.099284338518977790e+02
6.730000000000000000e+02 1.937312933416300496e+02
6.740000000000000000e+02 1.791540479983402463e+02
6.750000000000000000e+02 1.993978487243309132e+02
6.760000000000000000e+02 1.822980713811690805e+02
6.770000000000000000e+02 1.772084267579344896e+02
6.780000000000000000e+02 1.872298561916618667e+02
6.790000000000000000e+02 1.880366163832427731e+02
6.800000000000000000e+02 1.664019479775982688e+02
6.810000000000000000e+02 1.725859640323588167e+02
6.820000000000000000e+02 1.837014243882209144e+02
6.830000000000000000e+02 1.858823299730346719e+02
6.840000000000000000e+02 1.832166304915992896e+02
6.850000000000000000e+02 1.827865056408129476e+02
6.860000000000000000e+02 1.849274837585563205e+02
6.870000000000000000e+02 1.767604871188549396e+02
6.880000000000000000e+02 1.768414916217338373e+02
6.890000000000000000e+02 1.825680362580380063e+02
6.900000000000000000e+02 1.964293454884882522e+02
6.910000000000000000e+02 2.102216670192905212e+02
6.920000000000000000e+02 2.099242508193323715e+02
6.930000000000000000e+02 2.258775227961006067e+02
6.940000000000000000e+02 2.393524118025310088e+02
6.950000000000000000e+02 2.549338018046051957e+02
6.960000000000000000e+02 2.804807613358228195e+02
6.970000000000000000e+02 3.026702950010370614e+02
6.980000000000000000e+02 3.101971718730550833e+02
6.990000000000000000e+02 3.463109073428751117e+02
7.000000000000000000e+02 3.627115493466086491e+02
7.010000000000000000e+02 3.837700648962650689e+02
7.020000000000000000e+02 4.065673668326073766e+02
7.030000000000000000e+02 4.297097060360921432e+02
7.040000000000000000e+02 4.537644844877644914e+02
7.050000000000000000e+02 4.484546258867454753e+02
7.060000000000000000e+02 4.538360990458407969e+02
7.070000000000000000e+02 4.985366588137695771e+02
7.080000000000000000e+02 5.356001917237086900e+02
7.090000000000000000e+02 5.431224221115951423e+02
7.100000000000000000e+02 5.408648965989216322e+02
7.110000000000000000e+02 5.409079395353660402e+02
7.120000000000000000e+02 5.533082092719350840e+02
7.130000000000000000e+02 5.585519775611778641e+02
7.140000000000000000e+02 5.469474120929270384e+02
7.150000000000000000e+02 5.341987148516907382e+02
7.160000000000000000e+02 5.257579343912051399e+02
7.170000000000000000e+02 5.171958723086495411e+02
7.180000000000000000e+02 5.686919492428955891e+02
7.190000000000000000e+02 5.649659057871813275e+02
7.200000000000000000e+02 5.550374507778469706e+02
7.210000000000000000e+02 5.528164060983197032e+02
7.220000000000000000e+02 5.504384304915990924e+02
7.230000000000000000e+02 5.578388628292883595e+02
7.240000000000000000e+02 5.615038166562952711e+02
7.250000000000000000e+02 5.700990495332916908e+02
7.260000000000000000e+02 5.646949265090233894e+02
7.270000000000000000e+02 5.410207004355953586e+02
7.280000000000000000e+02 5.066348492843816871e+02
7.290000000000000000e+02 4.729404567931971997e+02
7.300000000000000000e+02 4.485177288262140110e+02
7.310000000000000000e+02 4.181209620410706407e+02
7.320000000000000000e+02 3.742633228998137724e+02
7.330000000000000000e+02 3.328840659684779553e+02
7.340000000000000000e+02 3.016757300767472429e+02
7.350000000000000000e+02 2.798949515868075082e+02
7.360000000000000000e+02 2.590473216092919415e+02
7.370000000000000000e+02 2.201723988384140398e+02
7.380000000000000000e+02 2.013284084007464401e+02
7.390000000000000000e+02 2.007054340315220600e+02
7.400000000000000000e+02 2.012851359676416507e+02
7.410000000000000000e+02 1.966220746318194017e+02
7.420000000000000000e+02 1.892572759021155946e+02
7.430000000000000000e+02 1.766758608794863505e+02
7.440000000000000000e+02 1.529896654013700470e+02
7.450000000000000000e+02 1.259557465463600181e+02
7.460000000000000000e+02 1.114130133167393240e+02
7.470000000000000000e+02 1.059176326280855847e+02
7.480000000000000000e+02 9.449276179838196299e+01
7.490000000000000000e+02 7.753908713130049080e+01
7.500000000000000000e+02 7.923592126322333229e+01
7.510000000000000000e+02 2.108793877245165405e+01
7.520000000000000000e+02 3.329868367973551102e+01
7.530000000000000000e+02 3.330026304293649986e+01
7.540000000000000000e+02 1.226645278158033747e+01
7.550000000000000000e+02 2.522113017838687909e+01
7.560000000000000000e+02 2.855280255080917584e+01
7.570000000000000000e+02 3.935264009541532459e+01
7.580000000000000000e+02 5.234556380833790712e+01
7.590000000000000000e+02 6.893272690584905149e+01
7.600000000000000000e+02 7.445347738643468460e+01
7.610000000000000000e+02 6.387874516490351340e+01
7.620000000000000000e+02 7.028135901907913308e+01
7.630000000000000000e+02 7.550385194772869113e+01
7.640000000000000000e+02 7.700557025928230814e+01
7.650000000000000000e+02 7.526338375362915656e+01
7.660000000000000000e+02 7.423794249740717532e+01
7.670000000000000000e+02 7.962613503422545591e+01
7.680000000000000000e+02 8.767893239734546285e+01
7.690000000000000000e+02 6.842677730138893821e+01
7.700000000000000000e+02 7.631431699025107207e+01
7.710000000000000000e+02 7.160529270898196330e+01
7.720000000000000000e+02 7.790202765401429019e+01
7.730000000000000000e+02 6.762326720447721584e+01
7.740000000000000000e+02 2.544607076540150814e+01
7.750000000000000000e+02 2.792671348475408521e+01
7.760000000000000000e+02 2.887116097262526537e+01
7.770000000000000000e+02 1.544827435594287834e+01
7.780000000000000000e+02 2.023938678718076289e+01
7.790000000000000000e+02 4.088910714226463483e+01
7.800000000000000000e+02 5.905783523542893931e+01
7.810000000000000000e+02 1.061189302551343872e+02
7.820000000000000000e+02 1.283566496889267796e+02
7.830000000000000000e+02 1.839107204936738924e+02
7.840000000000000000e+02 2.207159621447843847e+02
7.850000000000000000e+02 2.885921258867467714e+02
7.860000000000000000e+02 3.686709917651942305e+02
7.870000000000000000e+02 4.414186298070958401e+02
7.880000000000000000e+02 5.456430226094183809e+02
7.890000000000000000e+02 6.719871684505289977e+02
7.900000000000000000e+02 7.776176474797777018e+02
7.910000000000000000e+02 9.214763049989638830e+02
7.920000000000000000e+02 1.085330119269860461e+03
7.930000000000000000e+02 1.274232148102050587e+03
7.940000000000000000e+02 1.519747225264468398e+03
7.950000000000000000e+02 1.811646498029452232e+03
7.960000000000000000e+02 2.069183016386643885e+03
7.970000000000000000e+02 2.415828676415683731e+03
7.980000000000000000e+02 2.822190221899622884e+03
7.990000000000000000e+02 3.302712036092098970e+03
8.000000000000000000e+02 3.859234578303253329e+03
8.010000000000000000e+02 4.471141291580252982e+03
8.020000000000000000e+02 5.169312466293300531e+03
8.030000000000000000e+02 6.045449779713743737e+03
8.040000000000000000e+02 6.985188633347153882e+03
8.050000000000000000e+02 8.054656255756062819e+03
8.060000000000000000e+02 9.340255389753143390e+03
8.070000000000000000e+02 1.077509560763168338e+04
8.080000000000000000e+02 1.231548062227752234e+04
8.090000000000000000e+02 1.411970267786762815e+04
8.100000000000000000e+02 1.609255688031528916e+04
8.110000000000000000e+02 1.798000037129226621e+04
8.120000000000000000e+02 1.986063710640945646e+04
8.130000000000000000e+02 2.145905942750465692e+04
8.140000000000000000e+02 2.251699771209291430e+04
8.150000000000000000e+02 2.283776431445757771e+04
8.160000000000000000e+02 2.210474420452189588e+04
8.170000000000000000e+02 2.060539362165529383e+04
8.180000000000000000e+02 1.858335036714381204e+04
8.190000000000000000e+02 1.626159465671026010e+04
8.200000000000000000e+02 1.416854556938398855e+04
8.210000000000000000e+02 1.255114434349725161e+04
8.220000000000000000e+02 1.122621354075919953e+04
8.230000000000000000e+02 1.031266333748187390e+04
8.240000000000000000e+02 9.655555329531327516e+03
8.250000000000000000e+02 9.281208571043353004e+03
8.260000000000000000e+02 9.202689149968886341e+03
8.270000000000000000e+02 9.293163454168394310e+03
8.280000000000000000e+02 9.570499613358231727e+03
8.290000000000000000e+02 1.015998350134827706e+04
8.300000000000000000e+02 1.073822452509330287e+04
8.310000000000000000e+02 1.146549386434347252e+04
8.320000000000000000e+02 1.243271294337278232e+04
8.330000000000000000e+02 1.348099366652837853e+04
8.340000000000000000e+02 1.469397533499269412e+04
8.350000000000000000e+02 1.610320796515239635e+04
8.360000000000000000e+02 1.753580976565736273e+04
8.370000000000000000e+02 1.906169024891095978e+04
8.380000000000000000e+02 2.056948824517730463e+04
8.390000000000000000e+02 2.163531136278779377e+04
8.400000000000000000e+02 2.236811065339140623e+04
8.410000000000000000e+02 2.265024333540759471e+04
8.420000000000000000e+02 2.225007159925326050e+04
8.430000000000000000e+02 2.120988419829909617e+04
8.440000000000000000e+02 1.979156635345362884e+04
8.450000000000000000e+02 1.816479377722458958e+04
8.460000000000000000e+02 1.640011807716235853e+04
8.470000000000000000e+02 1.476642763119680239e+04
8.480000000000000000e+02 1.327747789047921833e+04
8.490000000000000000e+02 1.198676644679520905e+04
8.500000000000000000e+02 1.102679082555481909e+04
8.510000000000000000e+02 1.027129774320682736e+04
8.520000000000000000e+02 9.713745577058720301e+03
8.530000000000000000e+02 9.351697377851523925e+03
8.540000000000000000e+02 9.133840609831986512e+03
8.550000000000000000e+02 9.101190212818915825e+03
8.560000000000000000e+02 9.232753440066360781e+03
8.570000000000000000e+02 9.490723718108278263e+03
8.580000000000000000e+02 9.998978238954574408e+03
8.590000000000000000e+02 1.066510352965575839e+04
8.600000000000000000e+02 1.160483395975941130e+04
8.610000000000000000e+02 1.274732084629747624e+04
8.620000000000000000e+02 1.405117204064709404e+04
8.630000000000000000e+02 1.560143207218427051e+04
8.640000000000000000e+02 1.738590345156613694e+04
8.650000000000000000e+02 1.928425969709532728e+04
8.660000000000000000e+02 2.165967679386153395e+04
8.670000000000000000e+02 2.426430985065348796e+04
8.680000000000000000e+02 2.705952410080903792e+04
8.690000000000000000e+02 3.021105490045633269e+04
8.700000000000000000e+02 3.340337940883626288e+04
8.710000000000000000e+02 3.651521136901065620e+04
8.720000000000000000e+02 3.963277063044387614e+04
8.730000000000000000e+02 4.169489083177762950e+04
8.740000000000000000e+02 4.252678173200580204e+04
8.750000000000000000e+02 4.090210916217333579e+04
8.760000000000000000e+02 3.727026977598001395e+04
8.770000000000000000e+02 3.223206958929674511e+04
8.780000000000000000e+02 2.672805712092911563e+04
8.790000000000000000e+02 2.181787781580576120e+04
8.800000000000000000e+02 1.757687191661476754e+04
8.810000000000000000e+02 1.412951555071554139e+04
8.820000000000000000e+02 1.139064371499684967e+04
8.830000000000000000e+02 9.280290470649231793e+03
8.840000000000000000e+02 7.631390907902891740e+03
8.850000000000000000e+02 6.315345545115106688e+03
8.860000000000000000e+02 5.257957171748596920e+03
8.870000000000000000e+02 4.420676873470242754e+03
8.880000000000000000e+02 3.754656896287085146e+03
8.890000000000000000e+02 3.161475988176727697e+03
8.900000000000000000e+02 2.675959296826380069e+03
8.910000000000000000e+02 2.281091272764985206e+03
8.920000000000000000e+02 1.968074627125674624e+03
8.930000000000000000e+02 1.703945048330219151e+03
8.940000000000000000e+02 1.451866352831362747e+03
8.950000000000000000e+02 1.262580541269182959e+03
8.960000000000000000e+02 1.087812878448453603e+03
8.970000000000000000e+02 9.207373451566070344e+02
8.980000000000000000e+02 8.063321348610534187e+02
8.990000000000000000e+02 6.855717090230239137e+02
9.000000000000000000e+02 5.599124623107246634e+02
9.010000000000000000e+02 4.741516239319781789e+02
9.020000000000000000e+02 3.993886970130679401e+02
9.030000000000000000e+02 3.414014902924711237e+02
9.040000000000000000e+02 2.612991238332293733e+02
9.050000000000000000e+02 2.139494632441400768e+02
9.060000000000000000e+02 1.661543431030904969e+02
9.070000000000000000e+02 1.053583438083385175e+02
9.080000000000000000e+02 6.609382314872419784e+01
9.090000000000000000e+02 6.245391714996951293e+01
9.100000000000000000e+02 1.688166472578325639e+01
9.110000000000000000e+02 3.860494936942495769e+01
9.120000000000000000e+02 4.026918561916643569e+01
9.130000000000000000e+02 5.564627268823872441e+01
9.140000000000000000e+02 7.396561127566880600e+01
9.150000000000000000e+02 9.453562514208579159e+01
9.160000000000000000e+02 1.108457284795685496e+02
9.170000000000000000e+02 8.874493213441233763e+01
9.180000000000000000e+02 8.203384123600191913e+01
9.190000000000000000e+02 7.120436411740304550e+01
9.200000000000000000e+02 6.783890234391205354e+01
9.210000000000000000e+02 7.122051974491907345e+01
9.220000000000000000e+02 6.617302566894807114e+01
9.230000000000000000e+02 3.797435211159429258e+01
9.240000000000000000e+02 1.224636550352523834e+01
9.250000000000000000e+02 2.488064929890071753e+01
9.260000000000000000e+02 9.636235696951338525e+00
9.270000000000000000e+02 9.152562361468088881e+00
9.280000000000000000e+02 2.880028400124391652e+01
9.290000000000000000e+02 1.891563328977495217e+01
9.300000000000000000e+02 1.709847128577320063e+01
9.310000000000000000e+02 2.652916741132583667e+01
9.320000000000000000e+02 2.345583345986178614e+01
9.330000000000000000e+02 5.053009126322361055e+01
9.340000000000000000e+02 2.122276884878664305e+01
9.350000000000000000e+02 2.970835505289344169e+01
9.360000000000000000e+02 3.751331086496580980e+01
9.370000000000000000e+02 4.408966988799014075e+01
9.380000000000000000e+02 3.971471309894194235e+01
9.390000000000000000e+02 2.300058837792935051e+01
9.400000000000000000e+02 1.290425239576837058e+01
9.410000000000000000e+02 6.931231629951749795e+00
9.420000000000000000e+02 2.433847906035981623e+01
9.430000000000000000e+02 2.019203560257262353e+01
9.440000000000000000e+02 4.418128802115931819e+01
9.450000000000000000e+02 5.188536282514019859e+01
9.460000000000000000e+02 5.280654245592143781e+01
9.470000000000000000e+02 7.834436074050846344e+01
9.480000000000000000e+02 1.117106706907278522e+02
9.490000000000000000e+02 1.092064622148482158e+02
9.500000000000000000e+02 1.032080653598837898e+02
9.510000000000000000e+02 1.193543413607131782e+02
9.520000000000000000e+02 1.329989701161343305e+02
9.530000000000000000e+02 1.547174216552583630e+02
9.540000000000000000e+02 1.715640988384152763e+02
9.550000000000000000e+02 1.720109928245540516e+02
9.560000000000000000e+02 1.752327512134414746e+02
9.570000000000000000e+02 1.980351093963913343e+02
9.580000000000000000e+02 2.162315578095840749e+02
9.590000000000000000e+02 2.388203760423156155e+02
9.600000000000000000e+02 2.581463713544913503e+02
9.610000000000000000e+02 2.901587878241044223e+02
9.620000000000000000e+02 3.096295870566272583e+02
9.630000000000000000e+02 3.158199865795481855e+02
9.640000000000000000e+02 3.466481930304903472e+02
9.650000000000000000e+02 3.908708409251189551e+02
9.660000000000000000e+02 3.857879577473553354e+02
9.670000000000000000e+02 4.085444314872432869e+02
9.680000000000000000e+02 4.345374979257414907e+02
9.690000000000000000e+02 4.552390148724330174e+02
9.700000000000000000e+02 4.867205345571466069e+02
9.710000000000000000e+02 5.115924490976977950e+02
9.720000000000000000e+02 5.242387778929909246e+02
9.730000000000000000e+02 5.627205034225273721e+02
9.740000000000000000e+02 5.933184834889030981e+02
9.750000000000000000e+02 6.129273439858983465e+02
9.760000000000000000e+02 6.488342700062238464e+02
9.770000000000000000e+02 7.078960415888828948e+02
9.780000000000000000e+02 7.896507579842402720e+02
9.790000000000000000e+02 8.528282969715833133e+02
9.800000000000000000e+02 9.088697136278788093e+02
9.810000000000000000e+02 1.018514271837413958e+03
9.820000000000000000e+02 1.145472434971996336e+03
9.830000000000000000e+02 1.280423207010994247e+03
9.840000000000000000e+02 1.448818254666117127e+03
9.850000000000000000e+02 1.696250961418795896e+03
9.860000000000000000e+02 1.967120102883219488e+03
9.870000000000000000e+02 2.282235253889240539e+03
9.880000000000000000e+02 2.669803932171751512e+03
9.890000000000000000e+02 3.116896152457994958e+03
9.900000000000000000e+02 3.616682952706913966e+03
9.910000000000000000e+02 4.152930985480192248e+03
9.920000000000000000e+02 4.638810303256583211e+03
9.930000000000000000e+02 5.089615671852316154e+03
9.940000000000000000e+02 5.386167162414436461e+03
9.950000000000000000e+02 5.310757271313008459e+03
9.960000000000000000e+02 4.767382609417129970e+03
9.970000000000000000e+02 3.933144030699029827e+03
9.980000000000000000e+02 3.080984111387691428e+03
9.990000000000000000e+02 2.311058345986309632e+03
1.000000000000000000e+03 1.755984434314135115e+03
1.001000000000000000e+03 1.382720721991705659e+03
1.002000000000000000e+03 1.084420363692942146e+03
1.003000000000000000e+03 8.705031931535281728e+02
1.004000000000000000e+03 7.235456807053935790e+02
1.005000000000000000e+03 6.215248327800811694e+02
1.006000000000000000e+03 5.280273842323690587e+02
1.007000000000000000e+03 4.150891087136906776e+02
1.008000000000000000e+03 3.883738439834030487e+02
1.009000000000000000e+03 3.445325827800843967e+02
1.010000000000000000e+03 2.997151402489623138e+02
1.011000000000000000e+03 2.733753192946065838e+02
1.012000000000000000e+03 2.624215522821575632e+02
1.013000000000000000e+03 2.441969095435689212e+02
1.014000000000000000e+03 2.188093186721988275e+02
1.015000000000000000e+03 2.074099846473029629e+02
1.016000000000000000e+03 1.934233551867214373e+02
1.017000000000000000e+03 1.568375925311195829e+02
1.018000000000000000e+03 1.347942134854774281e+02
1.019000000000000000e+03 1.510417856846478912e+02
1.020000000000000000e+03 1.435507626556022842e+02
1.021000000000000000e+03 1.285275213250519073e+02
1.022000000000000000e+03 1.275943950207469157e+02
1.023000000000000000e+03 1.281404697095436234e+02
1.024000000000000000e+03 1.209311825726149721e+02
1.025000000000000000e+03 1.054558539419092966e+02
1.026000000000000000e+03 9.253272659750989249e+01
1.027000000000000000e+03 8.265110697095367698e+01
1.028000000000000000e+03 7.390151300829931813e+01
1.029000000000000000e+03 6.200223937888193149e+01
1.030000000000000000e+03 5.903324244813327937e+01
1.031000000000000000e+03 6.423526937759299926e+01
1.032000000000000000e+03 6.098586365145259691e+01
1.033000000000000000e+03 4.993456842323642064e+01
1.034000000000000000e+03 4.768265151452302320e+01
1.035000000000000000e+03 2.889165300829944272e+01
1.036000000000000000e+03 2.942726398340258953e+01
1.037000000000000000e+03 4.608009153527119395e+01
1.038000000000000000e+03 3.656264792960786991e+01
1.039000000000000000e+03 1.230286802904578281e+01
1.040000000000000000e+03 5.725191676349188796e+00
1.041000000000000000e+03 1.518804846473051917e+01
1.042000000000000000e+03 1.706701307053941363e+01
1.043000000000000000e+03 1.480208033194996275e+01
1.044000000000000000e+03 5.838981856845927076e+00
1.045000000000000000e+03 3.371864014523155539e+00
1.046000000000000000e+03 1.112659139004157005e+01
1.047000000000000000e+03 9.091229439834746628e+00
1.048000000000000000e+03 2.058905186721985459e+01
1.049000000000000000e+03 4.498891385893397654e+00
1.050000000000000000e+03 1.385395456431542627e+01
1.051000000000000000e+03 6.098158794605057942e+00
1.052000000000000000e+03 3.973631487551855912e+00
1.053000000000000000e+03 7.923740854771802233e+00
1.054000000000000000e+03 5.479694944100311105e+00
1.055000000000000000e+03 1.870445526970898342e+01
1.056000000000000000e+03 1.693614311203332079e+01
1.057000000000000000e+03 1.903112373444013272e+01
1.058000000000000000e+03 8.417589788819654473e+00
1.059000000000000000e+03 1.284102190456231263e+01
1.060000000000000000e+03 5.058560269709558810e+01
1.061000000000000000e+03 4.786895201244772835e+01
1.062000000000000000e+03 4.641857933609942677e+01
1.063000000000000000e+03 6.003132792531107498e+01
1.064000000000000000e+03 5.722782605809098300e+01
1.065000000000000000e+03 7.649616842323965216e+01
1.066000000000000000e+03 8.639618468879655211e+01
1.067000000000000000e+03 9.190061325726179575e+01
1.068000000000000000e+03 1.104262176348571103e+02
1.069000000000000000e+03 1.297320348547714275e+02
1.070000000000000000e+03 1.319257871369294719e+02
1.071000000000000000e+03 1.308996717842321686e+02
1.072000000000000000e+03 1.295548082987553471e+02
1.073000000000000000e+03 1.478919290456421436e+02
1.074000000000000000e+03 1.764546780082992825e+02
1.075000000000000000e+03 1.818807418219454632e+02
1.076000000000000000e+03 1.620351433609980347e+02
1.077000000000000000e+03 1.741356093360994635e+02
1.078000000000000000e+03 2.096319118257273999e+02
1.079000000000000000e+03 2.055328786307068185e+02
1.080000000000000000e+03 1.957159066390023270e+02
1.081000000000000000e+03 2.525185709543566190e+02
1.082000000000000000e+03 2.334361958506225960e+02
1.083000000000000000e+03 2.568141921161808341e+02
1.084000000000000000e+03 2.630933242738588547e+02
1.085000000000000000e+03 2.639764219917019545e+02
1.086000000000000000e+03 2.877032323651415595e+02
1.087000000000000000e+03 2.970210470954364155e+02
1.088000000000000000e+03 2.906010315352705220e+02
1.089000000000000000e+03 3.065825721991698742e+02
1.090000000000000000e+03 2.991129634854776782e+02
1.091000000000000000e+03 2.944031456431535503e+02
1.092000000000000000e+03 3.286162914937791584e+02
1.093000000000000000e+03 3.305367064315351513e+02
1.094000000000000000e+03 3.364822902489624994e+02
1.095000000000000000e+03 3.436807819502076313e+02
1.096000000000000000e+03 3.443481211618258726e+02
1.097000000000000000e+03 3.487936576763480048e+02
1.098000000000000000e+03 3.539217643153525614e+02
1.099000000000000000e+03 3.430990033195009232e+02
1.100000000000000000e+03 3.341923422360248992e+02
1.101000000000000000e+03 3.434569377593360286e+02
1.102000000000000000e+03 3.621067460580919715e+02
1.103000000000000000e+03 3.498548823651466364e+02
1.104000000000000000e+03 3.092330182194630197e+02
1.105000000000000000e+03 3.279008116182593540e+02
1.106000000000000000e+03 3.369062734439817177e+02
1.107000000000000000e+03 3.124809240663909122e+02
1.108000000000000000e+03 2.953887490683232500e+02
1.109000000000000000e+03 2.793000686722006662e+02
1.110000000000000000e+03 2.867641612033226011e+02
1.111000000000000000e+03 2.468771060165985887e+02
1.112000000000000000e+03 2.281334035269706249e+02
1.113000000000000000e+03 2.138374174273859865e+02
1.114000000000000000e+03 2.047794755186725979e+02
1.115000000000000000e+03 1.978926170124481132e+02
1.116000000000000000e+03 1.818066427385877830e+02
1.117000000000000000e+03 1.642117813278018730e+02
1.118000000000000000e+03 1.532705016597512611e+02
1.119000000000000000e+03 1.395988572614101884e+02
1.120000000000000000e+03 1.204588633540347757e+02
1.121000000000000000e+03 9.517016684647389013e+01
1.122000000000000000e+03 7.820871394190859860e+01
1.123000000000000000e+03 7.449836775933560773e+01
1.124000000000000000e+03 5.868611535269884172e+01
1.125000000000000000e+03 4.114517541493781039e+01
1.126000000000000000e+03 4.978545195020898007e+01
1.127000000000000000e+03 4.718423773858948778e+01
1.128000000000000000e+03 2.302408246888022347e+01
1.129000000000000000e+03 2.149527871635624265e+01
1.130000000000000000e+03 2.746866921161857533e+01
1.131000000000000000e+03 2.268081697095516702e+01
1.132000000000000000e+03 2.226104771784486402e+00
1.133000000000000000e+03 3.967488869565690912e+00
1.134000000000000000e+03 1.413322466804890176e+01
1.135000000000000000e+03 2.234565348547721797e+01
1.136000000000000000e+03 1.175711408713642570e+01
1.137000000000000000e+03 2.969042496894587657e+00
1.138000000000000000e+03 9.418137232364706790e+00
1.139000000000000000e+03 6.755265074688779237e+00
1.140000000000000000e+03 9.527903809127723278e+00
1.141000000000000000e+03 6.630312821576784366e+00
1.142000000000000000e+03 8.766187014522500931e+00
1.143000000000000000e+03 1.064457173236485410e+01
1.144000000000000000e+03 1.204888398962889973e+01
1.145000000000000000e+03 4.727533365146570077e+00
1.146000000000000000e+03 1.000599796680518949e+01
1.147000000000000000e+03 1.273601618257261059e+01
1.148000000000000000e+03 1.691727879667956813e+01
1.149000000000000000e+03 2.544086204968933629e+01
1.150000000000000000e+03 2.093861954356734145e+01
1.151000000000000000e+03 7.114193261410960645e+00
1.152000000000000000e+03 1.778518989626470059e+01
1.153000000000000000e+03 3.641830199170141924e+01
1.154000000000000000e+03 5.526034991701372689e+01
1.155000000000000000e+03 5.987890485477197444e+01
1.156000000000000000e+03 4.466163078838199851e+01
1.157000000000000000e+03 4.509520863070594743e+01
1.158000000000000000e+03 4.921456080745343797e+01
1.159000000000000000e+03 5.630638095435639201e+01
1.160000000000000000e+03 7.188700425311239428e+01
1.161000000000000000e+03 8.809709284232557991e+01
1.162000000000000000e+03 1.024937753623192833e+02
1.163000000000000000e+03 9.313199336099583547e+01
1.164000000000000000e+03 8.040838302904572288e+01
1.165000000000000000e+03 9.453384522821700386e+01
1.166000000000000000e+03 1.499450821946157362e+02
1.167000000000000000e+03 1.402334497925298251e+02
1.168000000000000000e+03 1.367628385892133451e+02
1.169000000000000000e+03 1.502292946058084055e+02
1.170000000000000000e+03 1.755642325726137756e+02
1.171000000000000000e+03 1.876569141078830114e+02
1.172000000000000000e+03 1.804858676348542303e+02
1.173000000000000000e+03 1.951257265560163887e+02
1.174000000000000000e+03 1.835979431535266144e+02
1.175000000000000000e+03 1.790545265560183452e+02
1.176000000000000000e+03 2.033286634854759711e+02
1.177000000000000000e+03 2.197710879668049699e+02
1.178000000000000000e+03 2.041841817427373087e+02
1.179000000000000000e+03 2.025623668049787227e+02
1.180000000000000000e+03 1.990611456431537079e+02
1.181000000000000000e+03 2.018184348547724483e+02
1.182000000000000000e+03 2.018762435684653838e+02
1.183000000000000000e+03 1.929086143153525654e+02
1.184000000000000000e+03 1.974162894190871782e+02
1.185000000000000000e+03 1.933276578838168689e+02
1.186000000000000000e+03 1.872255869294606896e+02
1.187000000000000000e+03 2.080213999999999999e+02
1.188000000000000000e+03 1.957880157676347039e+02
1.189000000000000000e+03 2.004672622406624498e+02
1.190000000000000000e+03 2.145185141078835898e+02
1.191000000000000000e+03 2.018588397515522388e+02
1.192000000000000000e+03 1.808160203319499999e+02
1.193000000000000000e+03 1.716767230290458883e+02
1.194000000000000000e+03 1.724700379668049379e+02
1.195000000000000000e+03 1.855734072463784230e+02
1.196000000000000000e+03 1.957550236514532287e+02
1.197000000000000000e+03 1.815975406639005030e+02
1.198000000000000000e+03 1.928686659751038519e+02
1.199000000000000000e+03 1.743759215767613284e+02
1.200000000000000000e+03 1.472349977178434699e+02
1.201000000000000000e+03 1.755532773858921587e+02
1.202000000000000000e+03 1.659591985477163689e+02
1.203000000000000000e+03 1.508604130705400905e+02
1.204000000000000000e+03 1.401320618257262822e+02
1.205000000000000000e+03 1.489578186722006024e+02
1.206000000000000000e+03 1.690232290456432054e+02
1.207000000000000000e+03 1.575327921161845950e+02
1.208000000000000000e+03 1.396936165975106690e+02
1.209000000000000000e+03 1.543551414937761876e+02
1.210000000000000000e+03 1.408915512448147638e+02
1.211000000000000000e+03 1.246376412863073853e+02
1.212000000000000000e+03 1.207382464730290224e+02
1.213000000000000000e+03 1.279502203319496232e+02
1.214000000000000000e+03 1.035170843983413249e+02
1.215000000000000000e+03 8.826394381742734652e+01
1.216000000000000000e+03 8.583216518672196571e+01
1.217000000000000000e+03 8.656333431535257716e+01
1.218000000000000000e+03 8.864899867219912721e+01
1.219000000000000000e+03 7.495543072613909885e+01
1.220000000000000000e+03 5.585027434782658418e+01
1.221000000000000000e+03 6.615213854771894830e+01
1.222000000000000000e+03 2.833990585062205980e+01
1.223000000000000000e+03 5.456771842323875887e+01
1.224000000000000000e+03 6.138975739130444964e+01
1.225000000000000000e+03 5.210337473029039757e+01
1.226000000000000000e+03 5.578066761410830310e+01
1.227000000000000000e+03 2.930381807054336463e+01
1.228000000000000000e+03 2.742951173912980778e+01
1.229000000000000000e+03 3.521442858921142260e+01
1.230000000000000000e+03 3.088741066390008072e+01
1.231000000000000000e+03 1.947024763485619303e+01
1.232000000000000000e+03 8.897322717842300221e+00
1.233000000000000000e+03 1.563156475103718179e+01
1.234000000000000000e+03 1.137189456431578805e+01
1.235000000000000000e+03 9.358081139004067239e+00
1.236000000000000000e+03 1.571418004149387926e+01
1.237000000000000000e+03 1.152496333333359502e+01
1.238000000000000000e+03 1.543107962655574639e+01
1.239000000000000000e+03 1.421165585062235159e+01
1.240000000000000000e+03 1.678624460579764666e+00
1.241000000000000000e+03 1.142061705394108273e+01
1.242000000000000000e+03 1.639223719916687472e+00
1.243000000000000000e+03 1.545844226140992816e+01
1.244000000000000000e+03 2.645777170124194999e+00
1.245000000000000000e+03 3.568459759335727899e+00
1.246000000000000000e+03 6.856827809128320794e+00
1.247000000000000000e+03 1.741214867220000784e+01
1.248000000000000000e+03 1.614314029045721810e+01
1.249000000000000000e+03 3.189690275362373040e+00
1.250000000000000000e+03 2.636014321576891195e+00
1.251000000000000000e+03 1.786640614107689817e+00
1.252000000000000000e+03 2.342109973029095737e+00
1.253000000000000000e+03 3.385664022821623487e+00
1.254000000000000000e+03 1.672958698340442396e+01
1.255000000000000000e+03 2.643165639004126888e+01
1.256000000000000000e+03 3.204730917012444991e+01
1.257000000000000000e+03 3.594196672877830423e+01
1.258000000000000000e+03 3.835595010373312164e+01
1.259000000000000000e+03 4.089656217842386354e+01
1.260000000000000000e+03 2.474067705394186589e+01
1.261000000000000000e+03 2.746909275933630923e+01
1.262000000000000000e+03 2.357750427385910186e+01
1.263000000000000000e+03 3.028068182572627975e+01
1.264000000000000000e+03 4.201256348547751429e+01
1.265000000000000000e+03 3.515064000000059252e+01
1.266000000000000000e+03 2.161186486542458596e+01
1.267000000000000000e+03 2.669011269709608669e+01
1.268000000000000000e+03 2.720780058091182596e+01
1.269000000000000000e+03 1.258169690249053119e+01
1.270000000000000000e+03 1.003199231535312741e+01
1.271000000000000000e+03 2.196498460580940204e+01
1.272000000000000000e+03 2.078183730290527009e+01
1.273000000000000000e+03 1.932576211618226836e+01
1.274000000000000000e+03 2.845192085062211973e+01
1.275000000000000000e+03 1.600560284232357233e+01
1.276000000000000000e+03 1.429267436058259677e-01
1.277000000000000000e+03 1.021020278008300686e+01
1.278000000000000000e+03 0.000000000000000000e+00
1.279000000000000000e+03 0.000000000000000000e+00
1.280000000000000000e+03 0.000000000000000000e+00
1.281000000000000000e+03 0.000000000000000000e+00
1.282000000000000000e+03 0.000000000000000000e+00
1.283000000000000000e+03 0.000000000000000000e+00
1.284000000000000000e+03 0.000000000000000000e+00
1.285000000000000000e+03 0.000000000000000000e+00
1.286000000000000000e+03 0.000000000000000000e+00
1.287000000000000000e+03 0.000000000000000000e+00
1.288000000000000000e+03 0.000000000000000000e+00
1.289000000000000000e+03 0.000000000000000000e+00
1.290000000000000000e+03 0.000000000000000000e+00
1.291000000000000000e+03 0.000000000000000000e+00
1.292000000000000000e+03 0.000000000000000000e+00
1.293000000000000000e+03 0.000000000000000000e+00
1.294000000000000000e+03 0.000000000000000000e+00
1.295000000000000000e+03 0.000000000000000000e+00
1.296000000000000000e+03 0.000000000000000000e+00
1.297000000000000000e+03 0.000000000000000000e+00
1.298000000000000000e+03 0.000000000000000000e+00
1.299000000000000000e+03 0.000000000000000000e+00
1.300000000000000000e+03 0.000000000000000000e+00
1.301000000000000000e+03 0.000000000000000000e+00
1.302000000000000000e+03 0.000000000000000000e+00
1.303000000000000000e+03 0.000000000000000000e+00
1.304000000000000000e+03 0.000000000000000000e+00
1.305000000000000000e+03 0.000000000000000000e+00
1.306000000000000000e+03 0.000000000000000000e+00
1.307000000000000000e+03 0.000000000000000000e+00
1.308000000000000000e+03 0.000000000000000000e+00
1.309000000000000000e+03 0.000000000000000000e+00
1.310000000000000000e+03 0.000000000000000000e+00
1.311000000000000000e+03 0.000000000000000000e+00
1.312000000000000000e+03 0.000000000000000000e+00
1.313000000000000000e+03 0.000000000000000000e+00
1.314000000000000000e+03 0.000000000000000000e+00
1.315000000000000000e+03 0.000000000000000000e+00
1.316000000000000000e+03 0.000000000000000000e+00
1.317000000000000000e+03 0.000000000000000000e+00
1.318000000000000000e+03 0.000000000000000000e+00
1.319000000000000000e+03 0.000000000000000000e+00
1.320000000000000000e+03 0.000000000000000000e+00
1.321000000000000000e+03 0.000000000000000000e+00
1.322000000000000000e+03 0.000000000000000000e+00
1.323000000000000000e+03 0.000000000000000000e+00
1.324000000000000000e+03 0.000000000000000000e+00
1.325000000000000000e+03 0.000000000000000000e+00
1.326000000000000000e+03 0.000000000000000000e+00
1.327000000000000000e+03 0.000000000000000000e+00
1.328000000000000000e+03 0.000000000000000000e+00
1.329000000000000000e+03 0.000000000000000000e+00
1.330000000000000000e+03 0.000000000000000000e+00
1.331000000000000000e+03 0.000000000000000000e+00
1.332000000000000000e+03 0.000000000000000000e+00
1.333000000000000000e+03 0.000000000000000000e+00
1.334000000000000000e+03 0.000000000000000000e+00
1.335000000000000000e+03 0.000000000000000000e+00
1.336000000000000000e+03 0.000000000000000000e+00
1.337000000000000000e+03 0.000000000000000000e+00
1.338000000000000000e+03 0.000000000000000000e+00
1.339000000000000000e+03 0.000000000000000000e+00
1.340000000000000000e+03 0.000000000000000000e+00
1.341000000000000000e+03 0.000000000000000000e+00
1.342000000000000000e+03 0.000000000000000000e+00
1.343000000000000000e+03 0.000000000000000000e+00
1.344000000000000000e+03 0.000000000000000000e+00
1.345000000000000000e+03 0.000000000000000000e+00
1.346000000000000000e+03 0.000000000000000000e+00
1.347000000000000000e+03 0.000000000000000000e+00
1.348000000000000000e+03 0.000000000000000000e+00
1.349000000000000000e+03 0.000000000000000000e+00
1.350000000000000000e+03 0.000000000000000000e+00
1.351000000000000000e+03 0.000000000000000000e+00
1.352000000000000000e+03 0.000000000000000000e+00
1.353000000000000000e+03 0.000000000000000000e+00
1.354000000000000000e+03 0.000000000000000000e+00
1.355000000000000000e+03 0.000000000000000000e+00
1.356000000000000000e+03 0.000000000000000000e+00
1.357000000000000000e+03 0.000000000000000000e+00
1.358000000000000000e+03 0.000000000000000000e+00
1.359000000000000000e+03 0.000000000000000000e+00
1.360000000000000000e+03 0.000000000000000000e+00
1.361000000000000000e+03 0.000000000000000000e+00
1.362000000000000000e+03 0.000000000000000000e+00
1.363000000000000000e+03 0.000000000000000000e+00
1.364000000000000000e+03 0.000000000000000000e+00
1.365000000000000000e+03 0.000000000000000000e+00
1.366000000000000000e+03 0.000000000000000000e+00
1.367000000000000000e+03 0.000000000000000000e+00
1.368000000000000000e+03 0.000000000000000000e+00
1.369000000000000000e+03 0.000000000000000000e+00
1.370000000000000000e+03 0.000000000000000000e+00
1.371000000000000000e+03 0.000000000000000000e+00
1.372000000000000000e+03 0.000000000000000000e+00
1.373000000000000000e+03 0.000000000000000000e+00
1.374000000000000000e+03 0.000000000000000000e+00
1.375000000000000000e+03 0.000000000000000000e+00
1.376000000000000000e+03 0.000000000000000000e+00
1.377000000000000000e+03 0.000000000000000000e+00
1.378000000000000000e+03 0.000000000000000000e+00
1.379000000000000000e+03 0.000000000000000000e+00
1.380000000000000000e+03 0.000000000000000000e+00
1.381000000000000000e+03 0.000000000000000000e+00
1.382000000000000000e+03 0.000000000000000000e+00
1.383000000000000000e+03 0.000000000000000000e+00
1.384000000000000000e+03 0.000000000000000000e+00
1.385000000000000000e+03 0.000000000000000000e+00
1.386000000000000000e+03 0.000000000000000000e+00
1.387000000000000000e+03 0.000000000000000000e+00
1.388000000000000000e+03 0.000000000000000000e+00
1.389000000000000000e+03 0.000000000000000000e+00
1.390000000000000000e+03 0.000000000000000000e+00
1.391000000000000000e+03 0.000000000000000000e+00
1.392000000000000000e+03 0.000000000000000000e+00
1.393000000000000000e+03 0.000000000000000000e+00
1.394000000000000000e+03 0.000000000000000000e+00
1.395000000000000000e+03 0.000000000000000000e+00
1.396000000000000000e+03 0.000000000000000000e+00
1.397000000000000000e+03 0.000000000000000000e+00
1.398000000000000000e+03 0.000000000000000000e+00
1.399000000000000000e+03 0.000000000000000000e+00
1.400000000000000000e+03 0.000000000000000000e+00
1.401000000000000000e+03 0.000000000000000000e+00
1.402000000000000000e+03 0.000000000000000000e+00
1.403000000000000000e+03 0.000000000000000000e+00
1.404000000000000000e+03 0.000000000000000000e+00
1.405000000000000000e+03 0.000000000000000000e+00
1.406000000000000000e+03 0.000000000000000000e+00
1.407000000000000000e+03 0.000000000000000000e+00
1.408000000000000000e+03 0.000000000000000000e+00
1.409000000000000000e+03 0.000000000000000000e+00
1.410000000000000000e+03 0.000000000000000000e+00
1.411000000000000000e+03 0.000000000000000000e+00
1.412000000000000000e+03 0.000000000000000000e+00
1.413000000000000000e+03 0.000000000000000000e+00
1.414000000000000000e+03 0.000000000000000000e+00
1.415000000000000000e+03 0.000000000000000000e+00
1.416000000000000000e+03 0.000000000000000000e+00
1.417000000000000000e+03 0.000000000000000000e+00
1.418000000000000000e+03 0.000000000000000000e+00
1.419000000000000000e+03 0.000000000000000000e+00
1.420000000000000000e+03 0.000000000000000000e+00
1.421000000000000000e+03 0.000000000000000000e+00
1.422000000000000000e+03 0.000000000000000000e+00
1.423000000000000000e+03 0.000000000000000000e+00
1.424000000000000000e+03 0.000000000000000000e+00
1.425000000000000000e+03 0.000000000000000000e+00
1.426000000000000000e+03 0.000000000000000000e+00
1.427000000000000000e+03 0.000000000000000000e+00
1.428000000000000000e+03 0.000000000000000000e+00
1.429000000000000000e+03 0.000000000000000000e+00
1.430000000000000000e+03 0.000000000000000000e+00
1.431000000000000000e+03 0.000000000000000000e+00
1.432000000000000000e+03 0.000000000000000000e+00
1.433000000000000000e+03 0.000000000000000000e+00
1.434000000000000000e+03 0.000000000000000000e+00
1.435000000000000000e+03 0.000000000000000000e+00
1.436000000000000000e+03 0.000000000000000000e+00
1.437000000000000000e+03 0.000000000000000000e+00
1.438000000000000000e+03 0.000000000000000000e+00
1.439000000000000000e+03 0.000000000000000000e+00
1.440000000000000000e+03 0.000000000000000000e+00
1.441000000000000000e+03 0.000000000000000000e+00
1.442000000000000000e+03 0.000000000000000000e+00
1.443000000000000000e+03 0.000000000000000000e+00
1.444000000000000000e+03 0.000000000000000000e+00
1.445000000000000000e+03 0.000000000000000000e+00
1.446000000000000000e+03 0.000000000000000000e+00
1.447000000000000000e+03 0.000000000000000000e+00
1.448000000000000000e+03 0.000000000000000000e+00
1.449000000000000000e+03 0.000000000000000000e+00
1.450000000000000000e+03 0.000000000000000000e+00
1.451000000000000000e+03 0.000000000000000000e+00
1.452000000000000000e+03 0.000000000000000000e+00
1.453000000000000000e+03 0.000000000000000000e+00
1.454000000000000000e+03 0.000000000000000000e+00
1.455000000000000000e+03 0.000000000000000000e+00
1.456000000000000000e+03 0.000000000000000000e+00
1.457000000000000000e+03 0.000000000000000000e+00
1.458000000000000000e+03 0.000000000000000000e+00
1.459000000000000000e+03 0.000000000000000000e+00
1.460000000000000000e+03 0.000000000000000000e+00
1.461000000000000000e+03 0.000000000000000000e+00
1.462000000000000000e+03 0.000000000000000000e+00
1.463000000000000000e+03 0.000000000000000000e+00
1.464000000000000000e+03 0.000000000000000000e+00
1.465000000000000000e+03 0.000000000000000000e+00
1.466000000000000000e+03 0.000000000000000000e+00
1.467000000000000000e+03 0.000000000000000000e+00
1.468000000000000000e+03 0.000000000000000000e+00
1.469000000000000000e+03 0.000000000000000000e+00
1.470000000000000000e+03 0.000000000000000000e+00
1.471000000000000000e+03 0.000000000000000000e+00
1.472000000000000000e+03 0.000000000000000000e+00
1.473000000000000000e+03 0.000000000000000000e+00
1.474000000000000000e+03 0.000000000000000000e+00
1.475000000000000000e+03 0.000000000000000000e+00
1.476000000000000000e+03 0.000000000000000000e+00
1.477000000000000000e+03 0.000000000000000000e+00
1.478000000000000000e+03 0.000000000000000000e+00
1.479000000000000000e+03 0.000000000000000000e+00
1.480000000000000000e+03 0.000000000000000000e+00
1.481000000000000000e+03 0.000000000000000000e+00
1.482000000000000000e+03 0.000000000000000000e+00
1.483000000000000000e+03 0.000000000000000000e+00
1.484000000000000000e+03 0.000000000000000000e+00
1.485000000000000000e+03 0.000000000000000000e+00
1.486000000000000000e+03 0.000000000000000000e+00
1.487000000000000000e+03 0.000000000000000000e+00
1.488000000000000000e+03 0.000000000000000000e+00
1.489000000000000000e+03 0.000000000000000000e+00
1.490000000000000000e+03 0.000000000000000000e+00
1.491000000000000000e+03 0.000000000000000000e+00
1.492000000000000000e+03 0.000000000000000000e+00
1.493000000000000000e+03 0.000000000000000000e+00
1.494000000000000000e+03 0.000000000000000000e+00
1.495000000000000000e+03 0.000000000000000000e+00
1.496000000000000000e+03 0.000000000000000000e+00
1.497000000000000000e+03 0.000000000000000000e+00
1.498000000000000000e+03 0.000000000000000000e+00
1.499000000000000000e+03 0.000000000000000000e+00
1.500000000000000000e+03 0.000000000000000000e+00
