1.010000000000000000e+02 0.000000000000000000e+00
1.020000000000000000e+02 0.000000000000000000e+00
1.030000000000000000e+02 0.000000000000000000e+00
1.040000000000000000e+02 0.000000000000000000e+00
1.050000000000000000e+02 0.000000000000000000e+00
1.060000000000000000e+02 0.000000000000000000e+00
1.070000000000000000e+02 0.000000000000000000e+00
1.080000000000000000e+02 0.000000000000000000e+00
1.090000000000000000e+02 0.000000000000000000e+00
1.100000000000000000e+02 0.000000000000000000e+00
1.110000000000000000e+02 0.000000000000000000e+00
1.120000000000000000e+02 0.000000000000000000e+00
1.130000000000000000e+02 0.000000000000000000e+00
1.140000000000000000e+02 0.000000000000000000e+00
1.150000000000000000e+02 0.000000000000000000e+00
1.160000000000000000e+02 0.000000000000000000e+00
1.170000000000000000e+02 0.000000000000000000e+00
1.180000000000000000e+02 0.000000000000000000e+00
1.190000000000000000e+02 0.000000000000000000e+00
1.200000000000000000e+02 0.000000000000000000e+00
1.210000000000000000e+02 0.000000000000000000e+00
1.220000000000000000e+02 0.000000000000000000e+00
1.230000000000000000e+02 0.000000000000000000e+00
1.240000000000000000e+02 0.000000000000000000e+00
1.250000000000000000e+02 0.000000000000000000e+00
1.260000000000000000e+02 0.000000000000000000e+00
1.270000000000000000e+02 0.000000000000000000e+00
1.280000000000000000e+02 0.000000000000000000e+00
1.290000000000000000e+02 0.000000000000000000e+00
1.300000000000000000e+02 0.000000000000000000e+00
1.310000000000000000e+02 0.000000000000000000e+00
1.320000000000000000e+02 0.000000000000000000e+00
1.330000000000000000e+02 0.000000000000000000e+00
1.340000000000000000e+02 0.000000000000000000e+00
1.350000000000000000e+02 0.000000000000000000e+00
1.360000000000000000e+02 0.000000000000000000e+00
1.370000000000000000e+02 0.000000000000000000e+00
1.380000000000000000e+02 0.000000000000000000e+00
1.390000000000000000e+02 0.000000000000000000e+00
1.400000000000000000e+02 0.000000000000000000e+00
1.410000000000000000e+02 0.000000000000000000e+00
1.420000000000000000e+02 0.000000000000000000e+00
1.430000000000000000e+02 0.000000000000000000e+00
1.440000000000000000e+02 0.000000000000000000e+00
1.450000000000000000e+02 0.000000000000000000e+00
1.460000000000000000e+02 0.000000000000000000e+00
1.470000000000000000e+02 0.000000000000000000e+00
1.480000000000000000e+02 0.000000000000000000e+00
1.490000000000000000e+02 0.000000000000000000e+00
1.500000000000000000e+02 0.000000000000000000e+00
1.510000000000000000e+02 0.000000000000000000e+00
1.520000000000000000e+02 0.000000000000000000e+00
1.530000000000000000e+02 0.000000000000000000e+00
1.540000000000000000e+02 0.000000000000000000e+00
1.550000000000000000e+02 0.000000000000000000e+00
1.560000000000000000e+02 4.886129489837639367e-02
1.570000000000000000e+02 1.114740345675197908e+01
1.580000000000000000e+02 4.399506129433731161e+01
1.590000000000000000e+02 5.944704887990040021e+01
1.600000000000000000e+02 5.500572960589104810e+01
1.610000000000000000e+02 4.225762038788623443e+01
1.620000000000000000e+02 2.484834758348887362e+01
1.630000000000000000e+02 1.725771844430615332e+01
1.640000000000000000e+02 4.679573275046642777e+01
1.650000000000000000e+02 2.186614867247399729e+01
1.660000000000000000e+02 1.505399413233777217e+01
1.670000000000000000e+02 3.573177783447428979e+00
1.680000000000000000e+02 3.396861098942100909e+01
1.690000000000000000e+02 5.608111291018477829e+01
1.700000000000000000e+02 6.647910407922030629e+01
1.710000000000000000e+02 7.867055212196638081e+01
1.720000000000000000e+02 1.030692279402612570e+02
1.730000000000000000e+02 1.127795831190377385e+02
1.740000000000000000e+02 1.225503377929891258e+02
1.750000000000000000e+02 1.363780911014312665e+02
1.760000000000000000e+02 1.430844072376607130e+02
1.770000000000000000e+02 1.390287527691351386e+02
1.780000000000000000e+02 1.082219955610864304e+02
1.790000000000000000e+02 1.047599097677313296e+02
1.800000000000000000e+02 1.674571744036504981e+02
1.810000000000000000e+02 2.192868908525202869e+02
1.820000000000000000e+02 1.877014752333536194e+02
1.830000000000000000e+02 2.004812345571464505e+02
1.840000000000000000e+02 2.946090666874092676e+02
1.850000000000000000e+02 3.089714772038997239e+02
1.860000000000000000e+02 2.833085395768513877e+02
1.870000000000000000e+02 2.845132179423359275e+02
1.880000000000000000e+02 3.233885187720389922e+02
1.890000000000000000e+02 3.588680193735738158e+02
1.900000000000000000e+02 3.560192792781581375e+02
1.910000000000000000e+02 3.724006324828876586e+02
1.920000000000000000e+02 4.151293261149140790e+02
1.930000000000000000e+02 4.666744585649105375e+02
1.940000000000000000e+02 5.318245771831562934e+02
1.950000000000000000e+02 5.970278090230249290e+02
1.960000000000000000e+02 6.452140419415060251e+02
1.970000000000000000e+02 6.652024829703381101e+02
1.980000000000000000e+02 6.574084757519186724e+02
1.990000000000000000e+02 6.742545962455925519e+02
2.000000000000000000e+02 7.270851883011828249e+02
2.010000000000000000e+02 8.007791432482887330e+02
2.020000000000000000e+02 8.602076413192281734e+02
2.030000000000000000e+02 8.645111215722878342e+02
2.040000000000000000e+02 9.250169417548237334e+02
2.050000000000000000e+02 9.693336611076539384e+02
2.060000000000000000e+02 9.404872631196848261e+02
2.070000000000000000e+02 9.803438820369212863e+02
2.080000000000000000e+02 9.995985748392454298e+02
2.090000000000000000e+02 1.078241260112010423e+03
2.100000000000000000e+02 1.219635235586893259e+03
2.110000000000000000e+02 1.322141231694668022e+03
2.120000000000000000e+02 1.411120890479155150e+03
2.130000000000000000e+02 1.577171950228122341e+03
2.140000000000000000e+02 1.726232714996888490e+03
2.150000000000000000e+02 1.760298373159095036e+03
2.160000000000000000e+02 1.883071061800083271e+03
2.170000000000000000e+02 1.969704818502385706e+03
2.180000000000000000e+02 2.036504985687616909e+03
2.190000000000000000e+02 2.133926513065117433e+03
2.200000000000000000e+02 2.279044586185436856e+03
2.210000000000000000e+02 2.406953591578511805e+03
2.220000000000000000e+02 2.506848270483302258e+03
2.230000000000000000e+02 2.620052507778468680e+03
2.240000000000000000e+02 2.801700766023644974e+03
2.250000000000000000e+02 2.985873639493883275e+03
2.260000000000000000e+02 3.275385832607344582e+03
2.270000000000000000e+02 3.529988648486104921e+03
2.280000000000000000e+02 3.669588960796513675e+03
2.290000000000000000e+02 3.851479132130263679e+03
2.300000000000000000e+02 3.964165732476151334e+03
2.310000000000000000e+02 4.017825032773283510e+03
2.320000000000000000e+02 3.959606611076540958e+03
2.330000000000000000e+02 3.694377243467437893e+03
2.340000000000000000e+02 3.249488418585352065e+03
2.350000000000000000e+02 2.762666133374817491e+03
2.360000000000000000e+02 2.297397336444723805e+03
2.370000000000000000e+02 1.876947692594901810e+03
2.380000000000000000e+02 1.516246047085663349e+03
2.390000000000000000e+02 1.262915103920347974e+03
2.400000000000000000e+02 1.044922463098942899e+03
2.410000000000000000e+02 8.530574189172382376e+02
2.420000000000000000e+02 7.376117836963273930e+02
2.430000000000000000e+02 6.173397004355936133e+02
2.440000000000000000e+02 5.452665709811242323e+02
2.450000000000000000e+02 5.070926534536406507e+02
2.460000000000000000e+02 4.638705443683878116e+02
2.470000000000000000e+02 4.030997314250150794e+02
2.480000000000000000e+02 3.852711644264675783e+02
2.490000000000000000e+02 3.369785540759183391e+02
2.500000000000000000e+02 2.829706997718785146e+02
2.510000000000000000e+02 3.262704975108899248e+02
2.520000000000000000e+02 3.015744146235219887e+02
2.530000000000000000e+02 2.731511070095396576e+02
2.540000000000000000e+02 2.496136571873059324e+02
2.550000000000000000e+02 2.295246285625389362e+02
2.560000000000000000e+02 2.557137809622564362e+02
2.570000000000000000e+02 2.489987389960589894e+02
2.580000000000000000e+02 2.199218840489527622e+02
2.590000000000000000e+02 1.869950819576936851e+02
2.600000000000000000e+02 1.579440701929059401e+02
2.610000000000000000e+02 1.897130521053723555e+02
2.620000000000000000e+02 2.220136498236881835e+02
2.630000000000000000e+02 2.068337749222139905e+02
2.640000000000000000e+02 1.508413479775982466e+02
2.650000000000000000e+02 1.915952673926566661e+02
2.660000000000000000e+02 2.041590556108687906e+02
2.670000000000000000e+02 1.696958756274619873e+02
2.680000000000000000e+02 1.142365473553212922e+02
2.690000000000000000e+02 7.689298658991995694e+01
2.700000000000000000e+02 4.222892641153273985e+01
2.710000000000000000e+02 3.271463984650480228e+01
2.720000000000000000e+02 1.412417475378613929e+01
2.730000000000000000e+02 1.188853690105785077e+01
2.740000000000000000e+02 3.049542087741126295e+01
2.750000000000000000e+02 1.271074018875781420e+01
2.760000000000000000e+02 4.584692197428384475e+01
2.770000000000000000e+02 7.531470528106169127e+01
2.780000000000000000e+02 3.291788675793401353e+01
2.790000000000000000e+02 3.646908651596849182e+01
2.800000000000000000e+02 3.036296489110119268e+01
2.810000000000000000e+02 2.315996303608460494e+01
2.820000000000000000e+02 3.642120792781501137e+01
2.830000000000000000e+02 6.658413588674571315e+01
2.840000000000000000e+02 4.087036474077152093e+01
2.850000000000000000e+02 2.223270846090026254e+01
2.860000000000000000e+02 2.047258410495756564e+01
2.870000000000000000e+02 1.376316037328914632e+01
2.880000000000000000e+02 4.720113778469306354e+00
2.890000000000000000e+02 2.814130426674918439e+01
2.900000000000000000e+02 4.622834686164693352e+01
2.910000000000000000e+02 4.646859562538891453e+01
2.920000000000000000e+02 6.200256348475410562e+01
2.930000000000000000e+02 7.784540783447444312e+01
2.940000000000000000e+02 1.108968755030080047e+02
2.950000000000000000e+02 1.186303100808959954e+02
2.960000000000000000e+02 9.972041916614836055e+01
2.970000000000000000e+02 1.327204754822656980e+02
2.980000000000000000e+02 1.594617146650074631e+02
2.990000000000000000e+02 1.475026404065554289e+02
3.000000000000000000e+02 1.352009272972414635e+02
3.010000000000000000e+02 1.519264492843809649e+02
3.020000000000000000e+02 1.118637516490362600e+02
3.030000000000000000e+02 1.451208484754191090e+02
3.040000000000000000e+02 1.319762417751991848e+02
3.050000000000000000e+02 9.318453449906574804e+01
3.060000000000000000e+02 1.794343985687616225e+02
3.070000000000000000e+02 1.304782436955628668e+02
3.080000000000000000e+02 8.442741388923460022e+01
3.090000000000000000e+02 7.598914061605475467e+01
3.100000000000000000e+02 7.286991203235167802e+01
3.110000000000000000e+02 6.239334997510884762e+01
3.120000000000000000e+02 7.667261190624358846e+01
3.130000000000000000e+02 9.731297642057269570e+01
3.140000000000000000e+02 1.175991818294963593e+02
3.150000000000000000e+02 1.351416957062851338e+02
3.160000000000000000e+02 1.104980378344742604e+02
3.170000000000000000e+02 1.226319278158065345e+02
3.180000000000000000e+02 1.485920938601953480e+02
3.190000000000000000e+02 1.452944110765413939e+02
3.200000000000000000e+02 8.976757924082133400e+01
3.210000000000000000e+02 1.413771678904788303e+02
3.220000000000000000e+02 1.502739760630576882e+02
3.230000000000000000e+02 1.586989385189785651e+02
3.240000000000000000e+02 1.997858472308649027e+02
3.250000000000000000e+02 1.695752265090230253e+02
3.260000000000000000e+02 2.104069525202237401e+02
3.270000000000000000e+02 2.230623934660861494e+02
3.280000000000000000e+02 2.248815573739890112e+02
3.290000000000000000e+02 2.721461609831986834e+02
3.300000000000000000e+02 3.086253749066777345e+02
3.310000000000000000e+02 2.923084888819745970e+02
3.320000000000000000e+02 3.250405719352843334e+02
3.330000000000000000e+02 3.829349868104521306e+02
3.340000000000000000e+02 3.610447382700683647e+02
3.350000000000000000e+02 3.842285243517948174e+02
3.360000000000000000e+02 3.903147000000000162e+02
3.370000000000000000e+02 4.135511919311334168e+02
3.380000000000000000e+02 4.700974061605463703e+02
3.390000000000000000e+02 5.073772509746993364e+02
3.400000000000000000e+02 5.756762686579538695e+02
3.410000000000000000e+02 6.197278091059940834e+02
3.420000000000000000e+02 6.589082695354624093e+02
3.430000000000000000e+02 7.253034496577470236e+02
3.440000000000000000e+02 8.082031404272966029e+02
3.450000000000000000e+02 8.663286618751302512e+02
3.460000000000000000e+02 9.355429248911018476e+02
3.470000000000000000e+02 1.037962200995644025e+03
3.480000000000000000e+02 1.151542672059740198e+03
3.490000000000000000e+02 1.216916416303672349e+03
3.500000000000000000e+02 1.295983412899211089e+03
3.510000000000000000e+02 1.404417896287077838e+03
3.520000000000000000e+02 1.524992741754825147e+03
3.530000000000000000e+02 1.644953746733041044e+03
3.540000000000000000e+02 1.798947522298275317e+03
3.550000000000000000e+02 1.904569852935073641e+03
3.560000000000000000e+02 2.031803542211158401e+03
3.570000000000000000e+02 2.202825588052269268e+03
3.580000000000000000e+02 2.356691432807961064e+03
3.590000000000000000e+02 2.519504345156607087e+03
3.600000000000000000e+02 2.709156872433104581e+03
3.610000000000000000e+02 2.873331179593529669e+03
3.620000000000000000e+02 3.002378520224021486e+03
3.630000000000000000e+02 3.170909123418378840e+03
3.640000000000000000e+02 3.363445373289094277e+03
3.650000000000000000e+02 3.565238444306164638e+03
3.660000000000000000e+02 3.746950889234600709e+03
3.670000000000000000e+02 3.922175121941099860e+03
3.680000000000000000e+02 4.199738545115127636e+03
3.690000000000000000e+02 4.409557739887995012e+03
3.700000000000000000e+02 4.618265170296615906e+03
3.710000000000000000e+02 4.829937014312379688e+03
3.720000000000000000e+02 5.022999304086283701e+03
3.730000000000000000e+02 5.236840277535779933e+03
3.740000000000000000e+02 5.336072126529766138e+03
3.750000000000000000e+02 5.214931496577478356e+03
3.760000000000000000e+02 4.915654330429370930e+03
3.770000000000000000e+02 4.521373459863099924e+03
3.780000000000000000e+02 3.906437880315292205e+03
3.790000000000000000e+02 3.374004294544694858e+03
3.800000000000000000e+02 2.896313334785311326e+03
3.810000000000000000e+02 2.381509275254096337e+03
3.820000000000000000e+02 1.846087682638446950e+03
3.830000000000000000e+02 1.531205394731379556e+03
3.840000000000000000e+02 1.320156326835336813e+03
3.850000000000000000e+02 1.153110005600500926e+03
3.860000000000000000e+02 9.779730492014049332e+02
3.870000000000000000e+02 7.630125574243039637e+02
3.880000000000000000e+02 6.652801273387279934e+02
3.890000000000000000e+02 5.271338443683922605e+02
3.900000000000000000e+02 4.337308390294481910e+02
3.910000000000000000e+02 4.018212093963915663e+02
3.920000000000000000e+02 3.142482113047098551e+02
3.930000000000000000e+02 2.665945776233928655e+02
3.940000000000000000e+02 2.466528655258245522e+02
3.950000000000000000e+02 2.318354264053101872e+02
3.960000000000000000e+02 1.980989087930314270e+02
3.970000000000000000e+02 1.027379185978011122e+02
3.980000000000000000e+02 1.002540766023646910e+02
3.990000000000000000e+02 1.378231169881774747e+02
4.000000000000000000e+02 1.402435016594056378e+02
4.010000000000000000e+02 1.055620889442028272e+02
4.020000000000000000e+02 1.484862760837999929e+02
4.030000000000000000e+02 1.155484030491587788e+02
4.040000000000000000e+02 9.759715012238143572e+01
4.050000000000000000e+02 1.019069258452603179e+02
4.060000000000000000e+02 8.770328540759251723e+01
4.070000000000000000e+02 4.787989225886710187e+01
4.080000000000000000e+02 7.649650464841271003e+01
4.090000000000000000e+02 8.802027795063274596e+01
4.100000000000000000e+02 8.636904506533899450e+01
4.110000000000000000e+02 8.554181364239788365e+01
4.120000000000000000e+02 3.640424389545738393e+01
4.130000000000000000e+02 5.524251527996662503e+01
4.140000000000000000e+02 6.969454101431233539e+01
4.150000000000000000e+02 5.162561262393686690e+01
4.160000000000000000e+02 2.179483263790941905e+01
4.170000000000000000e+02 1.323940962663354881e+01
4.180000000000000000e+02 3.755752449699258477e+01
4.190000000000000000e+02 2.053334344255563337e+01
4.200000000000000000e+02 7.117574802945700441e+00
4.210000000000000000e+02 9.161697961012023939e+00
4.220000000000000000e+02 8.811786428127060589e+00
4.230000000000000000e+02 2.522922172951578190e+01
4.240000000000000000e+02 2.316498246214482037e+01
4.250000000000000000e+02 3.647670685749776709e+01
4.260000000000000000e+02 9.272178051649028419e+01
4.270000000000000000e+02 9.156987673304296038e+01
4.280000000000000000e+02 1.067948085044596525e+02
4.290000000000000000e+02 1.340175013067826626e+02
4.300000000000000000e+02 1.337764154117397482e+02
4.310000000000000000e+02 1.211886287492224739e+02
4.320000000000000000e+02 1.952085092926780874e+02
4.330000000000000000e+02 2.324252845882601264e+02
4.340000000000000000e+02 2.419095881767268850e+02
4.350000000000000000e+02 2.513004808338520490e+02
4.360000000000000000e+02 2.778417434349710788e+02
4.370000000000000000e+02 3.256704276291237079e+02
4.380000000000000000e+02 3.327819122355867876e+02
4.390000000000000000e+02 3.201966206388715932e+02
4.400000000000000000e+02 3.664029362165500743e+02
4.410000000000000000e+02 4.460860347988390799e+02
4.420000000000000000e+02 4.220950055590126340e+02
4.430000000000000000e+02 4.588773760630565448e+02
4.440000000000000000e+02 5.562744020738275594e+02
4.450000000000000000e+02 6.036758575606720569e+02
4.460000000000000000e+02 6.017517899398462760e+02
4.470000000000000000e+02 6.827110517627545505e+02
4.480000000000000000e+02 6.912804593030491560e+02
4.490000000000000000e+02 7.693849711263228528e+02
4.500000000000000000e+02 8.611437809415197080e+02
4.510000000000000000e+02 9.089046520638876245e+02
4.520000000000000000e+02 9.434021136901068303e+02
4.530000000000000000e+02 1.036579687409249345e+03
4.540000000000000000e+02 1.085188715619166715e+03
4.550000000000000000e+02 1.108239738021158018e+03
4.560000000000000000e+02 1.160443330429370008e+03
4.570000000000000000e+02 1.222785409043767459e+03
4.580000000000000000e+02 1.126469673926574387e+03
4.590000000000000000e+02 1.068218182327318118e+03
4.600000000000000000e+02 1.024135056004978878e+03
4.610000000000000000e+02 9.362378992740116246e+02
4.620000000000000000e+02 8.135526259904581821e+02
4.630000000000000000e+02 7.101934906036095754e+02
4.640000000000000000e+02 6.362165173200586423e+02
4.650000000000000000e+02 5.332717383737800674e+02
4.660000000000000000e+02 4.036178456336852491e+02
4.670000000000000000e+02 2.852185007051013486e+02
4.680000000000000000e+02 2.489072382700681203e+02
4.690000000000000000e+02 2.439597447832396711e+02
4.700000000000000000e+02 1.623860001244306090e+02
4.710000000000000000e+02 7.995071610661688055e+01
4.720000000000000000e+02 8.067247493466052788e+01
4.730000000000000000e+02 3.963148553919559447e+01
4.740000000000000000e+02 2.134787230657416757e+01
4.750000000000000000e+02 2.794976164488752701e+01
4.760000000000000000e+02 1.951944422231436604e+01
4.770000000000000000e+02 2.536291782202872724e+01
4.780000000000000000e+02 8.356709045841338224e+00
4.790000000000000000e+02 1.383241900435597671e+01
4.800000000000000000e+02 8.062834614187963211e+00
4.810000000000000000e+02 9.643840512134412180e+00
4.820000000000000000e+02 7.641318336652146215e+00
4.830000000000000000e+02 6.252594727027654287e+00
4.840000000000000000e+02 4.864211403858120519e+01
4.850000000000000000e+02 2.198573248433822869e+01
4.860000000000000000e+02 1.723659616926027738e+01
4.870000000000000000e+02 3.139260298485767464e+01
4.880000000000000000e+02 1.226157711781818094e+01
4.890000000000000000e+02 2.491345800497910545e+01
4.900000000000000000e+02 2.670759095208506295e+01
4.910000000000000000e+02 4.243916080896104859e+01
4.920000000000000000e+02 1.601473940273758245e+01
4.930000000000000000e+02 1.615951566065124112e+01
4.940000000000000000e+02 3.211234254926340270e+01
4.950000000000000000e+02 5.438055154914957257e+01
4.960000000000000000e+02 4.996538815183564708e+01
4.970000000000000000e+02 4.506129638041894481e+01
4.980000000000000000e+02 6.441396701368732636e+01
4.990000000000000000e+02 7.059772375855636994e+01
5.000000000000000000e+02 8.122588241443688162e+01
5.010000000000000000e+02 5.615330684778012227e+01
5.020000000000000000e+02 5.343676059946137258e+01
5.030000000000000000e+02 7.191139694461733711e+01
5.040000000000000000e+02 3.781390567814258219e+01
5.050000000000000000e+02 2.971736261356058950e+00
5.060000000000000000e+02 5.655620678904926280e+01
5.070000000000000000e+02 6.935586892138643123e+01
5.080000000000000000e+02 5.174998546152138346e+01
5.090000000000000000e+02 1.039869853764775343e+02
5.100000000000000000e+02 9.308570532669587294e+01
5.110000000000000000e+02 5.505578640323614081e+01
5.120000000000000000e+02 8.629170654428416753e+01
5.130000000000000000e+02 1.459119803982571568e+02
5.140000000000000000e+02 1.796325243310506607e+02
5.150000000000000000e+02 2.494132412777435093e+02
5.160000000000000000e+02 2.709969299108068981e+02
5.170000000000000000e+02 2.143280608587427309e+02
5.180000000000000000e+02 2.286298303608462845e+02
5.190000000000000000e+02 3.265607322962044918e+02
5.200000000000000000e+02 3.503032138353041205e+02
5.210000000000000000e+02 3.817572080464537407e+02
5.220000000000000000e+02 3.556562200373362543e+02
5.230000000000000000e+02 3.758936263223400260e+02
5.240000000000000000e+02 4.235791389050186240e+02
5.250000000000000000e+02 4.238521915992536719e+02
5.260000000000000000e+02 4.855680290811034752e+02
5.270000000000000000e+02 4.112831556615504951e+02
5.280000000000000000e+02 3.975789336029871492e+02
5.290000000000000000e+02 4.244750845467744966e+02
5.300000000000000000e+02 4.153053884902529944e+02
5.310000000000000000e+02 4.322630611491391619e+02
5.320000000000000000e+02 3.728242950217799034e+02
5.330000000000000000e+02 3.557858165525824461e+02
5.340000000000000000e+02 3.459401665007260931e+02
5.350000000000000000e+02 3.157550841941509816e+02
5.360000000000000000e+02 3.015984106409459287e+02
5.370000000000000000e+02 3.354368942128189133e+02
5.380000000000000000e+02 2.930060620825566389e+02
5.390000000000000000e+02 2.704568270275876216e+02
5.400000000000000000e+02 2.448826728687002685e+02
5.410000000000000000e+02 1.800263205351593001e+02
5.420000000000000000e+02 1.896502871188549193e+02
5.430000000000000000e+02 2.036583877411323158e+02
5.440000000000000000e+02 2.592150292677849848e+02
5.450000000000000000e+02 2.305142371084847639e+02
5.460000000000000000e+02 1.217333534411954901e+02
5.470000000000000000e+02 7.333147909373637674e+01
5.480000000000000000e+02 1.206631598216143857e+02
5.490000000000000000e+02 1.602482434764572190e+02
5.500000000000000000e+02 1.117461150559960430e+02
5.510000000000000000e+02 5.265291855631583218e+01
5.520000000000000000e+02 6.242502220078890218e+01
5.530000000000000000e+02 1.631257676690225011e+01
5.540000000000000000e+02 4.089396427711994875e+01
5.550000000000000000e+02 5.577827536403247422e+01
5.560000000000000000e+02 4.710988479054351785e+01
5.570000000000000000e+02 2.552001935283218614e+01
5.580000000000000000e+02 1.329366232648744806e+01
5.590000000000000000e+02 1.709758539535413036e+01
5.600000000000000000e+02 4.960338988176636832e+01
5.610000000000000000e+02 5.853625205144241761e+01
5.620000000000000000e+02 3.576396718523156437e+01
5.630000000000000000e+02 4.866834951462330849e+01
5.640000000000000000e+02 9.918634864965852671e+00
5.650000000000000000e+02 3.058182751089032436e+01
5.660000000000000000e+02 4.316570373988817977e+01
5.670000000000000000e+02 1.993409901265172834e+01
5.680000000000000000e+02 1.778724173615368187e+01
5.690000000000000000e+02 1.190103529060449183e+01
5.700000000000000000e+02 2.843605121966576377e+01
5.710000000000000000e+02 1.584662437876057872e+01
5.720000000000000000e+02 1.027555404895192126e+01
5.730000000000000000e+02 1.884453374118625391e+01
5.740000000000000000e+02 2.650124773490891172e+01
5.750000000000000000e+02 6.193465237295131232e+01
5.760000000000000000e+02 6.377517876607205238e+01
5.770000000000000000e+02 9.464175871188550104e+01
5.780000000000000000e+02 5.853854332918497505e+01
5.790000000000000000e+02 2.076563755288286117e+01
5.800000000000000000e+02 1.131113081933161446e+01
5.810000000000000000e+02 1.561994789628766256e+01
5.820000000000000000e+02 5.897695273122992887e+01
5.830000000000000000e+02 1.415762096577093843e+01
5.840000000000000000e+02 6.784911634513896672e+00
5.850000000000000000e+02 2.866169158058459843e+01
5.860000000000000000e+02 4.346759692594631019e+01
5.870000000000000000e+02 8.842781576109642572e+01
5.880000000000000000e+02 1.047474372744240441e+02
5.890000000000000000e+02 1.289763014519799071e+02
5.900000000000000000e+02 1.334665645375373231e+02
5.910000000000000000e+02 1.059696183779297769e+02
5.920000000000000000e+02 1.491605802115741142e+02
5.930000000000000000e+02 1.733450569058483666e+02
5.940000000000000000e+02 2.760560676208277755e+02
5.950000000000000000e+02 3.621559516282934510e+02
5.960000000000000000e+02 3.813453906470350034e+02
5.970000000000000000e+02 3.988818303671444028e+02
5.980000000000000000e+02 4.120971880522706101e+02
5.990000000000000000e+02 4.274398697365664361e+02
6.000000000000000000e+02 5.182014916632158474e+02
6.010000000000000000e+02 5.954226224849614937e+02
6.020000000000000000e+02 5.894002100186692132e+02
6.030000000000000000e+02 5.659996785358773650e+02
6.040000000000000000e+02 5.786203029039616013e+02
6.050000000000000000e+02 6.211894404480392495e+02
6.060000000000000000e+02 6.708476982579842343e+02
6.070000000000000000e+02 7.056023133167395827e+02
6.080000000000000000e+02 7.130840434142293134e+02
6.090000000000000000e+02 6.991316379095810589e+02
6.100000000000000000e+02 7.545473036092117809e+02
6.110000000000000000e+02 7.587120182949586251e+02
6.120000000000000000e+02 7.661593632932406308e+02
6.130000000000000000e+02 8.007075507778486099e+02
6.140000000000000000e+02 8.264180442439328544e+02
6.150000000000000000e+02 8.192634450114092033e+02
6.160000000000000000e+02 7.948299998755447859e+02
6.170000000000000000e+02 8.201743082762931181e+02
6.180000000000000000e+02 8.439787097697574154e+02
6.190000000000000000e+02 8.680455732420643926e+02
6.200000000000000000e+02 9.485834130678275642e+02
6.210000000000000000e+02 9.377425954573739091e+02
6.220000000000000000e+02 9.400629913503423722e+02
6.230000000000000000e+02 9.720951818917238825e+02
6.240000000000000000e+02 9.782872929060355318e+02
6.250000000000000000e+02 9.757885309894219290e+02
6.260000000000000000e+02 1.050579332434673688e+03
6.270000000000000000e+02 1.001599166148103109e+03
6.280000000000000000e+02 1.076193180460487838e+03
6.290000000000000000e+02 1.069038347988383975e+03
6.300000000000000000e+02 1.050402175482268603e+03
6.310000000000000000e+02 1.124194551545322383e+03
6.320000000000000000e+02 1.112874705309001001e+03
6.330000000000000000e+02 1.180750248496161021e+03
6.340000000000000000e+02 1.186170382700684058e+03
6.350000000000000000e+02 1.200410615927002709e+03
6.360000000000000000e+02 1.189840193320887920e+03
6.370000000000000000e+02 1.140422316739265625e+03
6.380000000000000000e+02 1.230351035047699725e+03
6.390000000000000000e+02 1.250195824517734764e+03
6.400000000000000000e+02 1.257077399294752240e+03
6.410000000000000000e+02 1.262674170711470651e+03
6.420000000000000000e+02 1.274585414021987845e+03
6.430000000000000000e+02 1.292634764156813844e+03
6.440000000000000000e+02 1.264136273802114374e+03
6.450000000000000000e+02 1.187462571665628502e+03
6.460000000000000000e+02 1.165743763327110628e+03
6.470000000000000000e+02 1.171317396598216419e+03
6.480000000000000000e+02 1.143354940261355978e+03
6.490000000000000000e+02 1.088477233354075906e+03
6.500000000000000000e+02 1.091926010163866295e+03
6.510000000000000000e+02 1.067522408006637761e+03
6.520000000000000000e+02 1.101072481642812591e+03
6.530000000000000000e+02 1.090878148102052592e+03
6.540000000000000000e+02 1.053728671852313028e+03
6.550000000000000000e+02 1.085252154500207325e+03
6.560000000000000000e+02 1.056702356772453868e+03
6.570000000000000000e+02 1.081356241443683757e+03
6.580000000000000000e+02 1.064354208212360163e+03
6.590000000000000000e+02 1.080709393279403002e+03
6.600000000000000000e+02 1.145590133997095791e+03
6.610000000000000000e+02 1.183088803193695639e+03
6.620000000000000000e+02 1.229934543870566358e+03
6.630000000000000000e+02 1.286394365899190461e+03
6.640000000000000000e+02 1.407567463293239598e+03
6.650000000000000000e+02 1.525527052063886913e+03
6.660000000000000000e+02 1.611595800871187294e+03
6.670000000000000000e+02 1.706386701306783152e+03
6.680000000000000000e+02 1.849291588674549985e+03
6.690000000000000000e+02 1.993125948361674091e+03
6.700000000000000000e+02 2.116091269861024557e+03
6.710000000000000000e+02 2.291647886123208082e+03
6.720000000000000000e+02 2.515615160099541754e+03
6.730000000000000000e+02 2.722349330429370184e+03
6.740000000000000000e+02 2.946172176519390632e+03
6.750000000000000000e+02 3.153302219618413801e+03
6.760000000000000000e+02 3.378770573117607910e+03
6.770000000000000000e+02 3.609869870151416308e+03
6.780000000000000000e+02 3.832955551638322959e+03
6.790000000000000000e+02 4.037930540551750255e+03
6.800000000000000000e+02 4.182471916614807014e+03
6.810000000000000000e+02 4.282416342252644426e+03
6.820000000000000000e+02 4.261547453847749239e+03
6.830000000000000000e+02 4.243034021572288111e+03
6.840000000000000000e+02 4.261686262186268323e+03
6.850000000000000000e+02 4.237517940261354852e+03
6.860000000000000000e+02 4.105611640531006742e+03
6.870000000000000000e+02 3.943981947521263919e+03
6.880000000000000000e+02 3.758989674134002144e+03
6.890000000000000000e+02 3.527844442439336945e+03
6.900000000000000000e+02 3.331114661481023177e+03
6.910000000000000000e+02 3.211378640738440026e+03
6.920000000000000000e+02 3.040338146442654306e+03
6.930000000000000000e+02 2.750969244762504331e+03
6.940000000000000000e+02 2.589880281269449370e+03
6.950000000000000000e+02 2.463485094151807971e+03
6.960000000000000000e+02 2.287965611491392792e+03
6.970000000000000000e+02 2.081835704003319734e+03
6.980000000000000000e+02 1.933488878058896262e+03
6.990000000000000000e+02 1.753206350342249380e+03
7.000000000000000000e+02 1.559698144575811284e+03
7.010000000000000000e+02 1.411869719618420049e+03
7.020000000000000000e+02 1.244804594897332890e+03
7.030000000000000000e+02 1.130095323584319658e+03
7.040000000000000000e+02 1.208699091455826874e+03
7.050000000000000000e+02 1.038406059946076311e+03
7.060000000000000000e+02 9.658712961833660984e+02
7.070000000000000000e+02 9.183918390375455374e+02
7.080000000000000000e+02 8.888366482265090553e+02
7.090000000000000000e+02 8.870541570421075903e+02
7.100000000000000000e+02 8.876171847127151295e+02
7.110000000000000000e+02 9.007791249118436099e+02
7.120000000000000000e+02 9.397548517734908273e+02
7.130000000000000000e+02 8.856158878033593282e+02
7.140000000000000000e+02 8.566582084422323078e+02
7.150000000000000000e+02 9.084343789670199385e+02
7.160000000000000000e+02 9.162632514001219306e+02
7.170000000000000000e+02 7.691410749844387738e+02
7.180000000000000000e+02 7.107825421074456926e+02
7.190000000000000000e+02 6.845477707944422718e+02
7.200000000000000000e+02 6.556151102468352292e+02
7.210000000000000000e+02 6.021645464122734666e+02
7.220000000000000000e+02 5.298962541381471283e+02
7.230000000000000000e+02 4.801479528935938106e+02
7.240000000000000000e+02 3.940369719618432782e+02
7.250000000000000000e+02 3.767836993984653304e+02
7.260000000000000000e+02 2.944761894212845164e+02
7.270000000000000000e+02 2.130845683948570581e+02
7.280000000000000000e+02 1.959905585148308660e+02
7.290000000000000000e+02 1.552396731798380358e+02
7.300000000000000000e+02 7.976038516797862599e+01
7.310000000000000000e+02 2.385710601742272274e+01
7.320000000000000000e+02 3.233715643642491955e+01
7.330000000000000000e+02 3.406565525715394926e+01
7.340000000000000000e+02 3.432067784278138411e+00
7.350000000000000000e+02 2.596959373366545876e+01
7.360000000000000000e+02 3.405030298693105806e+01
7.370000000000000000e+02 6.220275812279689376e+01
7.380000000000000000e+02 6.640791841144732643e+01
7.390000000000000000e+02 7.573160704003282717e+01
7.400000000000000000e+02 4.034064943488330357e+01
7.410000000000000000e+02 1.359861878033603588e+01
7.420000000000000000e+02 7.981185818294952128e+01
7.430000000000000000e+02 7.124495776856034013e+01
7.440000000000000000e+02 4.331452292262959247e+01
7.450000000000000000e+02 7.177348649034701822e+00
7.460000000000000000e+02 1.017614683740721837e+00
7.470000000000000000e+02 3.565136098942321041e+01
7.480000000000000000e+02 7.082008106201877240e+01
7.490000000000000000e+02 2.684691337067096129e+01
7.500000000000000000e+02 1.705907685127484186e+01
7.510000000000000000e+02 1.949679149730579297e+01
7.520000000000000000e+02 5.584186445343222971e+01
7.530000000000000000e+02 9.225582755444784766e+01
7.540000000000000000e+02 1.371096787847381222e+02
7.550000000000000000e+02 1.494142961418794187e+02
7.560000000000000000e+02 9.159817929890105859e+01
7.570000000000000000e+02 6.696769888842793250e+01
7.580000000000000000e+02 5.282339225264438198e+01
7.590000000000000000e+02 9.195813225264569724e+01
7.600000000000000000e+02 1.484793684155963831e+02
7.610000000000000000e+02 1.443857661688444125e+02
7.620000000000000000e+02 1.377316039203480216e+02
7.630000000000000000e+02 1.172206440157640515e+02
7.640000000000000000e+02 1.339750227131304143e+02
7.650000000000000000e+02 1.083279946898970110e+02
7.660000000000000000e+02 3.066937214769039599e+01
7.670000000000000000e+02 2.210280999170282712e+01
7.680000000000000000e+02 2.360567943372623212e+00
7.690000000000000000e+02 3.184048818917332824e+00
7.700000000000000000e+02 4.227718247458967937e+01
7.710000000000000000e+02 1.950121387886411739e+01
7.720000000000000000e+02 1.631073799004275848e+00
7.730000000000000000e+02 1.948033817050425398e+01
7.740000000000000000e+02 5.841892265505114779e+01
7.750000000000000000e+02 1.106270582659196293e+02
7.760000000000000000e+02 8.467761332918466621e+01
7.770000000000000000e+02 9.139887974077173283e+01
7.780000000000000000e+02 1.317348885500941833e+02
7.790000000000000000e+02 1.525378648205765728e+02
7.800000000000000000e+02 1.397417256739939262e+02
7.810000000000000000e+02 1.374900090852524954e+02
7.820000000000000000e+02 1.808466011823274755e+02
7.830000000000000000e+02 1.700644635835749625e+02
7.840000000000000000e+02 1.458953056627253488e+02
7.850000000000000000e+02 1.597666243932794430e+02
7.860000000000000000e+02 1.618101529655740762e+02
7.870000000000000000e+02 1.299674356565027438e+02
7.880000000000000000e+02 1.208650362580377191e+02
7.890000000000000000e+02 9.610671233354025844e+01
7.900000000000000000e+02 5.341666981331665909e+01
7.910000000000000000e+02 5.055239728686979106e+01
7.920000000000000000e+02 1.006562860983204928e+02
7.930000000000000000e+02 1.002366618170504466e+02
7.940000000000000000e+02 2.884945378137327765e+01
7.950000000000000000e+02 4.425704759386034937e+01
7.960000000000000000e+02 7.732725344119464239e+01
7.970000000000000000e+02 9.111296855216750146e+01
7.980000000000000000e+02 1.043294360713545075e+02
7.990000000000000000e+02 1.091222488902717629e+02
8.000000000000000000e+02 7.439045946484232275e+01
8.010000000000000000e+02 4.054614883011824134e+01
8.020000000000000000e+02 1.031819610454261635e+02
8.030000000000000000e+02 1.114066525922855675e+02
8.040000000000000000e+02 9.317699551130489510e+01
8.050000000000000000e+02 5.740596706907217595e+01
8.060000000000000000e+02 4.313248595603452173e+01
8.070000000000000000e+02 8.383407625803702956e+01
8.080000000000000000e+02 1.338233909769754746e+02
8.090000000000000000e+02 1.230284515138949644e+02
8.100000000000000000e+02 1.027316012445552502e+02
8.110000000000000000e+02 1.269112487658154294e+02
8.120000000000000000e+02 1.010478800311083774e+02
8.130000000000000000e+02 6.115864740095458529e+01
8.140000000000000000e+02 5.149774643434998467e+01
8.150000000000000000e+02 5.738458036714325772e+01
8.160000000000000000e+02 1.033417078572912686e+02
8.170000000000000000e+02 6.092069279817518179e+01
8.180000000000000000e+02 3.243690181912443649e+01
8.190000000000000000e+02 6.339617503422918077e+00
8.200000000000000000e+02 2.929922523874861184e+01
8.210000000000000000e+02 8.636840807716369284e+01
8.220000000000000000e+02 4.057870709603953685e+01
8.230000000000000000e+02 1.221544665214702121e+02
8.240000000000000000e+02 7.532916186061160602e+01
8.250000000000000000e+02 8.269395131922701125e+01
8.260000000000000000e+02 8.797742469197361004e+01
8.270000000000000000e+02 6.237261535573612292e+01
8.280000000000000000e+02 4.793348130678306518e+01
8.290000000000000000e+02 5.618880297386939304e+01
8.300000000000000000e+02 5.470733975731263854e+01
8.310000000000000000e+02 9.699437715618346445e+00
8.320000000000000000e+02 2.969648886354230655e+01
8.330000000000000000e+02 3.441060528313678901e+01
8.340000000000000000e+02 5.925673609002248554e+01
8.350000000000000000e+02 5.295360381999303456e+01
8.360000000000000000e+02 1.296180701099364398e+02
8.370000000000000000e+02 1.040517022028613070e+02
8.380000000000000000e+02 5.659689766901870200e+01
8.390000000000000000e+02 4.769734475005158458e+01
8.400000000000000000e+02 7.408767830118425479e+01
8.410000000000000000e+02 8.876117818125253223e+01
8.420000000000000000e+02 7.039397394524128515e+01
8.430000000000000000e+02 5.105016766853198362e+01
8.440000000000000000e+02 8.680084615225027278e+01
8.450000000000000000e+02 9.364977397220465605e+01
8.460000000000000000e+02 1.197230907280644203e+02
8.470000000000000000e+02 6.826834319850655675e+01
8.480000000000000000e+02 3.240643173615426775e+01
8.490000000000000000e+02 4.630025951462356204e+01
8.500000000000000000e+02 4.627344514001315190e+01
8.510000000000000000e+02 9.231092124455562953e+01
8.520000000000000000e+02 7.610915037958874052e+01
8.530000000000000000e+02 5.464158077369782518e+01
8.540000000000000000e+02 8.268901843808556862e+01
8.550000000000000000e+02 7.949747750310955041e+01
8.560000000000000000e+02 8.774683005599955266e+01
8.570000000000000000e+02 1.336802169715781758e+02
8.580000000000000000e+02 3.700717001036785092e+01
8.590000000000000000e+02 2.927040726612746369e+01
8.600000000000000000e+02 1.550962585563153340e+01
8.610000000000000000e+02 8.092689034425362138e+01
8.620000000000000000e+02 1.219959021364863503e+02
8.630000000000000000e+02 1.254105196224847418e+02
8.640000000000000000e+02 1.356919848195768168e+02
8.650000000000000000e+02 9.983548624766585533e+01
8.660000000000000000e+02 6.625799060153471487e+01
8.670000000000000000e+02 1.212869346702633493e+02
8.680000000000000000e+02 8.340840087533419478e+01
8.690000000000000000e+02 4.073760571873032177e+01
8.700000000000000000e+02 4.749049820161955182e+01
8.710000000000000000e+02 7.784658534536470142e+01
8.720000000000000000e+02 8.343002143123760561e+01
8.730000000000000000e+02 5.549116789877653844e+01
8.740000000000000000e+02 5.578040274424387945e+01
8.750000000000000000e+02 2.901043141049522944e+01
8.760000000000000000e+02 4.239501269446115828e+01
8.770000000000000000e+02 7.951120281891678587e+01
8.780000000000000000e+02 1.027080031611696000e+02
8.790000000000000000e+02 1.001414773490975136e+02
8.800000000000000000e+02 7.191881208462910990e+01
8.810000000000000000e+02 1.059642790624358497e+02
8.820000000000000000e+02 1.653922139983338013e+01
8.830000000000000000e+02 1.402912511097538939e+01
8.840000000000000000e+02 8.200362209085507459e+01
8.850000000000000000e+02 1.259607832642055882e+02
8.860000000000000000e+02 1.229832254926357962e+02
8.870000000000000000e+02 1.086810311387653201e+02
8.880000000000000000e+02 1.922266437660523763e+01
8.890000000000000000e+02 5.711248901057613736e+00
8.900000000000000000e+02 6.597162728271996457e+01
8.910000000000000000e+02 9.603799326005808723e+01
8.920000000000000000e+02 8.336658930304909632e+01
8.930000000000000000e+02 3.884196272557541363e+01
8.940000000000000000e+02 9.969062032352264957e-01
8.950000000000000000e+02 8.186279191039338343e+01
8.960000000000000000e+02 3.468662824517699761e+01
8.970000000000000000e+02 3.461153335200196324e+01
8.980000000000000000e+02 3.869883141879296318e+01
8.990000000000000000e+02 6.389289954781232694e+01
9.000000000000000000e+02 1.141990029247062495e+02
9.010000000000000000e+02 1.243930576851260668e+02
9.020000000000000000e+02 5.691311092097024726e+01
9.030000000000000000e+02 4.047262804604824993e+01
9.040000000000000000e+02 7.092969582866669498e+01
9.050000000000000000e+02 3.800748304501107100e+01
9.060000000000000000e+02 8.965278677037940724e+01
9.070000000000000000e+02 1.321430566272557598e+02
9.080000000000000000e+02 6.807083902924745189e+01
9.090000000000000000e+02 1.647861872018202689e+01
9.100000000000000000e+02 1.120177639079031096e+01
9.110000000000000000e+02 1.773493947324780962e+01
9.120000000000000000e+02 8.516245797137565887e+01
9.130000000000000000e+02 2.761761327670570410e+01
9.140000000000000000e+02 7.316272962671137137e+00
9.150000000000000000e+02 2.864430139805044462e+01
9.160000000000000000e+02 2.992418607342872860e+01
9.170000000000000000e+02 1.337999973455002412e+01
9.180000000000000000e+02 1.914668696535979819e+01
9.190000000000000000e+02 2.815058680771613808e+01
9.200000000000000000e+02 2.386111055806752290e+01
9.210000000000000000e+02 6.566145734909778753e+01
9.220000000000000000e+02 8.186669637212189343e+01
9.230000000000000000e+02 7.840853111387664853e+01
9.240000000000000000e+02 5.744528625596353066e+01
9.250000000000000000e+02 2.939865006222751020e+01
9.260000000000000000e+02 1.913481471064098471e+01
9.270000000000000000e+02 4.174989543455691887e+01
9.280000000000000000e+02 9.528846620618081431e+01
9.290000000000000000e+02 5.783035072806467269e+01
9.300000000000000000e+02 3.717488087118827877e+01
9.310000000000000000e+02 4.969727091267395735e+01
9.320000000000000000e+02 2.231046533499288387e+01
9.330000000000000000e+02 2.106079986724772368e+00
9.340000000000000000e+02 3.970715765401278929e+01
9.350000000000000000e+02 4.841625774113256853e+01
9.360000000000000000e+02 1.563638504667098239e+01
9.370000000000000000e+02 3.134777167565267320e+01
9.380000000000000000e+02 2.086296510474973687e+01
9.390000000000000000e+02 7.777215036092075984e+00
9.400000000000000000e+02 2.347301238904834975e+01
9.410000000000000000e+02 6.682839503215190291e+01
9.420000000000000000e+02 7.340714287493111279e+00
9.430000000000000000e+02 1.475075424595507378e+01
9.440000000000000000e+02 5.248475153080234179e+01
9.450000000000000000e+02 2.619295116158638237e+01
9.460000000000000000e+02 2.361207418498480592e+01
9.470000000000000000e+02 4.295165659614181664e+01
9.480000000000000000e+02 2.232864580585044223e+01
9.490000000000000000e+02 1.095042292409753415e+01
9.500000000000000000e+02 1.353771806056824190e+01
9.510000000000000000e+02 5.113571471686342562e+01
9.520000000000000000e+02 3.438128346816013448e+01
9.530000000000000000e+02 8.832058602364654121e+01
9.540000000000000000e+02 8.234163499481446991e+01
9.550000000000000000e+02 6.171307478946465608e+01
9.560000000000000000e+02 1.100967611076537480e+02
9.570000000000000000e+02 9.006787711885479553e+01
9.580000000000000000e+02 1.010819476415672682e+02
9.590000000000000000e+02 1.461012146857481184e+02
9.600000000000000000e+02 1.650781945032152578e+02
9.610000000000000000e+02 1.242839010786163954e+02
9.620000000000000000e+02 1.234975494710623991e+02
9.630000000000000000e+02 1.119220282662829220e+02
9.640000000000000000e+02 7.292999017838555176e+01
9.650000000000000000e+02 9.980883079858877238e+01
9.660000000000000000e+02 1.173310771464123974e+02
9.670000000000000000e+02 1.064623900435594805e+02
9.680000000000000000e+02 1.102467759800872500e+02
9.690000000000000000e+02 5.381494230194915929e+01
9.700000000000000000e+02 3.531166546359721536e+01
9.710000000000000000e+02 2.673024640323522050e+01
9.720000000000000000e+02 3.285973313334942958e+01
9.730000000000000000e+02 9.264181936942624418e+01
9.740000000000000000e+02 7.310328041692564227e+01
9.750000000000000000e+02 9.606704871422579117e+01
9.760000000000000000e+02 3.872819606098703815e+01
9.770000000000000000e+02 7.057699328977597020e+01
9.780000000000000000e+02 6.359006434764683746e+01
9.790000000000000000e+02 7.766447096037937570e+01
9.800000000000000000e+02 9.242087464841621625e+01
9.810000000000000000e+02 6.134241688861157371e+01
9.820000000000000000e+02 9.540442038996158658e+01
9.830000000000000000e+02 1.142757041900021342e+01
9.840000000000000000e+02 3.489571998548071008e+01
9.850000000000000000e+02 3.450016164281258568e+01
9.860000000000000000e+02 6.870217032358479514e+01
9.870000000000000000e+02 8.409400688031485060e+01
9.880000000000000000e+02 5.693943628707636151e+01
9.890000000000000000e+02 4.938127672682054481e+01
9.900000000000000000e+02 8.175395980709477328e+01
9.910000000000000000e+02 9.036277680356728581e+01
9.920000000000000000e+02 7.013860900870838577e+01
9.930000000000000000e+02 1.641768059593586315e+01
9.940000000000000000e+02 7.095875703796542311e+00
9.950000000000000000e+02 3.349783833471705208e+01
9.960000000000000000e+02 6.306441748392394686e+01
9.970000000000000000e+02 3.726308912051618449e+01
9.980000000000000000e+02 2.556524083782652212e+01
9.990000000000000000e+02 1.104202325637829674e+01
1.000000000000000000e+03 5.894478870981131280e+01
1.001000000000000000e+03 6.545310697095466423e+01
1.002000000000000000e+03 1.722984195020662668e+01
1.003000000000000000e+03 9.621567572614013741e-01
1.004000000000000000e+03 1.956257844398435708e+01
1.005000000000000000e+03 3.663079437759332535e+01
1.006000000000000000e+03 3.985287341614918688e+01
1.007000000000000000e+03 3.277881887966725571e+01
1.008000000000000000e+03 1.625150580912761811e+01
1.009000000000000000e+03 5.612171066389990415e+01
1.010000000000000000e+03 1.402461095435623051e+01
1.011000000000000000e+03 4.697059112033150541e+01
1.012000000000000000e+03 3.300354738589153669e+01
1.013000000000000000e+03 3.568190682572519279e+01
1.014000000000000000e+03 1.468624535269609765e+01
1.015000000000000000e+03 7.481078759336067208e+01
1.016000000000000000e+03 3.764848858920981911e+01
1.017000000000000000e+03 1.824130033194981948e+01
1.018000000000000000e+03 5.328455186721834735e+01
1.019000000000000000e+03 1.288844890041512592e+01
1.020000000000000000e+03 3.345247784232128652e+01
1.021000000000000000e+03 4.995036259336006168e+01
1.022000000000000000e+03 6.769557551867056588e+01
1.023000000000000000e+03 9.276906564315316928e+01
1.024000000000000000e+03 8.278702788381770006e+01
1.025000000000000000e+03 1.304562991701263854e+02
1.026000000000000000e+03 1.330123871369297603e+02
1.027000000000000000e+03 1.165916904761907489e+02
1.028000000000000000e+03 1.284687109958515805e+02
1.029000000000000000e+03 1.499491016597532962e+02
1.030000000000000000e+03 2.473220002074608033e+02
1.031000000000000000e+03 3.307924132780088371e+02
1.032000000000000000e+03 3.478515385892123390e+02
1.033000000000000000e+03 3.771405049792466571e+02
1.034000000000000000e+03 4.811454082987511924e+02
1.035000000000000000e+03 6.375240751552843221e+02
1.036000000000000000e+03 7.314060014522851816e+02
1.037000000000000000e+03 9.184123738589116783e+02
1.038000000000000000e+03 1.038027763485478545e+03
1.039000000000000000e+03 1.246124022821598373e+03
1.040000000000000000e+03 1.524274717842304881e+03
1.041000000000000000e+03 1.766487597510371415e+03
1.042000000000000000e+03 2.004820000000013579e+03
1.043000000000000000e+03 2.258253070539444252e+03
1.044000000000000000e+03 2.381966356846467988e+03
1.045000000000000000e+03 2.531136871369297296e+03
1.046000000000000000e+03 2.605043956431529750e+03
1.047000000000000000e+03 2.463750507246393227e+03
1.048000000000000000e+03 2.260111543568463730e+03
1.049000000000000000e+03 1.950294846473001598e+03
1.050000000000000000e+03 1.526464742738580526e+03
1.051000000000000000e+03 1.140617004149391050e+03
1.052000000000000000e+03 8.628705580912758251e+02
1.053000000000000000e+03 6.696060904564156999e+02
1.054000000000000000e+03 5.649648400415005653e+02
1.055000000000000000e+03 3.876432551867225129e+02
1.056000000000000000e+03 3.199491565217373363e+02
1.057000000000000000e+03 2.231760004149479641e+02
1.058000000000000000e+03 1.562079219917015109e+02
1.059000000000000000e+03 1.528954041493776970e+02
1.060000000000000000e+03 1.362052653526924644e+02
1.061000000000000000e+03 9.182210095435702613e+01
1.062000000000000000e+03 7.895592350622330002e+01
1.063000000000000000e+03 3.036941315352841286e+01
1.064000000000000000e+03 1.120961092753552037e+02
1.065000000000000000e+03 1.410531672199171283e+02
1.066000000000000000e+03 9.456156107883487039e+01
1.067000000000000000e+03 8.950703767634681185e+01
1.068000000000000000e+03 6.949782161826105664e+01
1.069000000000000000e+03 5.945991452282279965e+01
1.070000000000000000e+03 1.204853689419129523e+02
1.071000000000000000e+03 1.235536715767671296e+02
1.072000000000000000e+03 8.550512724637687256e+01
1.073000000000000000e+03 1.030295420746947030e+02
1.074000000000000000e+03 2.006432145228185107e+02
1.075000000000000000e+03 1.033018744398382438e+02
1.076000000000000000e+03 1.184862880745372280e+02
1.077000000000000000e+03 1.323567829875521795e+02
1.078000000000000000e+03 1.149878365145198558e+02
1.079000000000000000e+03 1.428134910788381831e+02
1.080000000000000000e+03 1.044350199170085602e+02
1.081000000000000000e+03 4.815328701244877863e+01
1.082000000000000000e+03 1.144722300414916560e+02
1.083000000000000000e+03 1.768512041493790434e+02
1.084000000000000000e+03 1.136908531120249819e+02
1.085000000000000000e+03 9.446111742738652595e+01
1.086000000000000000e+03 6.394667045643100778e+01
1.087000000000000000e+03 2.706460506223925933e+01
1.088000000000000000e+03 2.152134995850473587e+01
1.089000000000000000e+03 4.246740493775894976e+01
1.090000000000000000e+03 5.944617124481274573e+01
1.091000000000000000e+03 4.939106858921155663e+01
1.092000000000000000e+03 7.079689701244718947e+01
1.093000000000000000e+03 6.987855993788807041e+01
1.094000000000000000e+03 6.643658865145229697e+01
1.095000000000000000e+03 7.705623033194895299e+01
1.096000000000000000e+03 7.945829309128637874e+01
1.097000000000000000e+03 4.544188691511061506e+01
1.098000000000000000e+03 2.672065551866880639e+01
1.099000000000000000e+03 4.625637315352863510e+01
1.100000000000000000e+03 4.699741045643332882e+01
1.101000000000000000e+03 1.240909892116174831e+02
1.102000000000000000e+03 6.513009443984009295e+01
1.103000000000000000e+03 1.891783265560145111e+01
1.104000000000000000e+03 1.864781055809428523e+01
1.105000000000000000e+03 2.067887915113860231e+01
1.106000000000000000e+03 4.372701053941742799e+01
1.107000000000000000e+03 8.234203037344464349e+01
1.108000000000000000e+03 1.264460794605883933e+02
1.109000000000000000e+03 1.453596473029073195e+02
1.110000000000000000e+03 5.761846369294522674e+01
1.111000000000000000e+03 9.647594809126207593e+00
1.112000000000000000e+03 1.737137398339410055e+01
1.113000000000000000e+03 1.071761857142841876e+02
1.114000000000000000e+03 1.149794153526955540e+02
1.115000000000000000e+03 7.006983763485304451e+01
1.116000000000000000e+03 6.498375261410622272e+01
1.117000000000000000e+03 7.168868033126277339e+01
1.118000000000000000e+03 7.800061311203666037e+01
1.119000000000000000e+03 1.022603991286299703e+02
1.120000000000000000e+03 8.319085834025000281e+01
1.121000000000000000e+03 3.701768419087085249e+01
1.122000000000000000e+03 6.960240380952151895e+01
1.123000000000000000e+03 6.099083639004217616e+01
1.124000000000000000e+03 5.398492477178416493e+01
1.125000000000000000e+03 4.413841302904685904e+01
1.126000000000000000e+03 7.893650412862888288e+01
1.127000000000000000e+03 4.271971387136982656e+01
1.128000000000000000e+03 7.306018358921570588e+00
1.129000000000000000e+03 2.953915804979371984e+01
1.130000000000000000e+03 2.336910731950362319e+01
1.131000000000000000e+03 5.561363228215851251e+01
1.132000000000000000e+03 2.782279502073933131e+01
1.133000000000000000e+03 9.563745767634370054e+01
1.134000000000000000e+03 4.515650867494805709e+01
1.135000000000000000e+03 6.972401010373889108e+01
1.136000000000000000e+03 4.727309207469226493e+01
1.137000000000000000e+03 1.162664855809066609e+02
1.138000000000000000e+03 1.112736392116160999e+02
1.139000000000000000e+03 1.018945045643303331e+02
1.140000000000000000e+03 1.582135103734543691e+02
1.141000000000000000e+03 3.054833377593366350e+01
1.142000000000000000e+03 7.500183354037227446e+01
1.143000000000000000e+03 4.341806163900867688e+01
1.144000000000000000e+03 6.353990576763063558e+00
1.145000000000000000e+03 1.462008064937939267e+01
1.146000000000000000e+03 7.816634167701752745e+01
1.147000000000000000e+03 5.927072506224357085e+01
1.148000000000000000e+03 5.920593871369361949e+01
1.149000000000000000e+03 6.471992800829664816e+01
1.150000000000000000e+03 5.960214995850456177e+01
1.151000000000000000e+03 6.452777368530038871e+01
1.152000000000000000e+03 2.011294122407052853e+01
1.153000000000000000e+03 8.911975636929486200e+01
1.154000000000000000e+03 7.916914481327901854e+01
1.155000000000000000e+03 7.115429211618344141e+01
1.156000000000000000e+03 1.318681834024923774e+02
1.157000000000000000e+03 1.065813692946104396e+02
1.158000000000000000e+03 7.284856228215778629e+01
1.159000000000000000e+03 8.108599190871521500e+01
1.160000000000000000e+03 1.070094718672194745e+02
1.161000000000000000e+03 1.257562041493772682e+02
1.162000000000000000e+03 1.060184981327789870e+02
1.163000000000000000e+03 4.985151236024366028e+01
1.164000000000000000e+03 3.585122983402481367e+01
1.165000000000000000e+03 7.659375000000000000e+01
1.166000000000000000e+03 6.811689796680214215e+01
1.167000000000000000e+03 2.540306279502825504e+01
1.168000000000000000e+03 1.096207887966787951e+02
1.169000000000000000e+03 7.909738120331599021e+01
1.170000000000000000e+03 4.046270612033222847e+01
1.171000000000000000e+03 1.833418275362573979e+01
1.172000000000000000e+03 3.153731278008434558e+01
1.173000000000000000e+03 9.637259377593218801e+01
1.174000000000000000e+03 8.610825224066149985e+01
1.175000000000000000e+03 1.349116474120078806e+02
1.176000000000000000e+03 1.257786792531108375e+02
1.177000000000000000e+03 9.506116427386223222e+01
1.178000000000000000e+03 3.231135630705750117e+01
1.179000000000000000e+03 1.986467271221530950e+01
1.180000000000000000e+03 7.613658871372575909e+00
1.181000000000000000e+03 3.558414854771667279e+01
1.182000000000000000e+03 8.365562124481201067e+01
1.183000000000000000e+03 1.186872514522805773e+02
1.184000000000000000e+03 7.415170744813816839e+01
1.185000000000000000e+03 6.435455726140779120e+01
1.186000000000000000e+03 1.059205946473019679e+02
1.187000000000000000e+03 4.315173564315279009e+01
1.188000000000000000e+03 1.063042114522788495e+02
1.189000000000000000e+03 9.231995817427389284e+01
1.190000000000000000e+03 1.237914390041515134e+02
1.191000000000000000e+03 1.866302439835492066e+01
1.192000000000000000e+03 4.772974649377325562e+01
1.193000000000000000e+03 1.472266831950220478e+02
1.194000000000000000e+03 1.114621213900340564e+02
1.195000000000000000e+03 4.123996854771614551e+01
1.196000000000000000e+03 8.011829416149052463e+01
1.197000000000000000e+03 1.205914178423231107e+02
1.198000000000000000e+03 9.807127966805286690e+01
1.199000000000000000e+03 7.423872265560177652e+01
1.200000000000000000e+03 9.797197018633711707e+01
1.201000000000000000e+03 1.454508939834011301e+02
1.202000000000000000e+03 1.177585149377623139e+02
1.203000000000000000e+03 6.308140114107855823e+01
1.204000000000000000e+03 8.319563109731413419e+01
1.205000000000000000e+03 6.927388879668436061e+01
1.206000000000000000e+03 5.345808954356785136e+01
1.207000000000000000e+03 8.952182132780198742e+01
1.208000000000000000e+03 8.319591571427906729e+01
1.209000000000000000e+03 4.504225385891770372e+01
1.210000000000000000e+03 1.040769702282144351e+02
1.211000000000000000e+03 4.667505228216091240e+01
1.212000000000000000e+03 1.238462970954337408e+02
1.213000000000000000e+03 3.723118663900432068e+01
1.214000000000000000e+03 9.124072215768601168e+00
1.215000000000000000e+03 8.329536564314994962e+01
1.216000000000000000e+03 2.765740900415570991e+01
1.217000000000000000e+03 4.519807944191239812e+01
1.218000000000000000e+03 5.658438609958025722e+01
1.219000000000000000e+03 5.104100097509721934e+01
1.220000000000000000e+03 1.258429296680495355e+02
1.221000000000000000e+03 1.397971419087128595e+02
1.222000000000000000e+03 1.344676257261396870e+02
1.223000000000000000e+03 1.277325692946085240e+02
1.224000000000000000e+03 3.505348883817227090e+01
1.225000000000000000e+03 8.448563995859256215e-01
1.226000000000000000e+03 2.915680221991420495e+01
1.227000000000000000e+03 9.059790931535297887e+01
1.228000000000000000e+03 1.280980207468888636e+02
1.229000000000000000e+03 5.013175387163951058e+01
1.230000000000000000e+03 5.860366975103546849e+01
1.231000000000000000e+03 1.231982746887977385e+02
1.232000000000000000e+03 6.863559593360002964e+01
1.233000000000000000e+03 1.978623049792066269e+01
1.234000000000000000e+03 1.091927145228221434e+02
1.235000000000000000e+03 1.147338191078797536e+02
1.236000000000000000e+03 7.119831657676351711e+01
1.237000000000000000e+03 9.067048136645887269e+01
1.238000000000000000e+03 1.344625838174268608e+02
1.239000000000000000e+03 6.495744705394125162e+01
1.240000000000000000e+03 2.299652784232117853e+01
1.241000000000000000e+03 6.440432666667084050e+01
1.242000000000000000e+03 1.306094278008295078e+02
1.243000000000000000e+03 9.694199309129000142e+01
1.244000000000000000e+03 8.139677919087115754e+01
1.245000000000000000e+03 8.019821763485333577e+01
1.246000000000000000e+03 7.526325062239747865e+01
1.247000000000000000e+03 1.488293929460576521e+02
1.248000000000000000e+03 1.529369336099587429e+02
1.249000000000000000e+03 1.214023138589050745e+02
1.250000000000000000e+03 4.005762572614172967e+01
1.251000000000000000e+03 8.382451489626595276e+01
1.252000000000000000e+03 9.986738564315173505e+01
1.253000000000000000e+03 1.155948286307055355e+02
1.254000000000000000e+03 1.319726887966806146e+02
1.255000000000000000e+03 4.278763219916411487e+01
1.256000000000000000e+03 4.419103564313891397e+00
1.257000000000000000e+03 3.392311070539255269e+01
1.258000000000000000e+03 8.506365877593493963e+01
1.259000000000000000e+03 1.360652199170146162e+02
1.260000000000000000e+03 1.144195110373483431e+02
1.261000000000000000e+03 7.826298020746854434e+01
1.262000000000000000e+03 8.698041215767580070e+01
1.263000000000000000e+03 8.679847360996089378e+01
1.264000000000000000e+03 1.499249846472988281e+02
1.265000000000000000e+03 2.123781634854771028e+02
1.266000000000000000e+03 8.266181826085841067e+01
1.267000000000000000e+03 4.898984641078604341e+01
1.268000000000000000e+03 5.889470589211622098e+01
1.269000000000000000e+03 5.794810217842325528e+01
1.270000000000000000e+03 5.408366695652236444e+01
1.271000000000000000e+03 9.781460435684365962e+01
1.272000000000000000e+03 1.467474165975105791e+02
1.273000000000000000e+03 1.143235190871357503e+02
1.274000000000000000e+03 1.194827869565163780e+02
1.275000000000000000e+03 1.489615377593358971e+02
1.276000000000000000e+03 7.079249821576624413e+01
1.277000000000000000e+03 6.656017612033161868e+01
1.278000000000000000e+03 5.402014784232358835e+01
1.279000000000000000e+03 5.454658460580861146e+01
1.280000000000000000e+03 2.283799672199231523e+01
1.281000000000000000e+03 3.878460879667768779e+01
1.282000000000000000e+03 6.557812282157668449e+01
1.283000000000000000e+03 6.531454396265480966e+01
1.284000000000000000e+03 1.292820048963383783e+01
1.285000000000000000e+03 8.629156157053398601e+01
1.286000000000000000e+03 2.044563973029060264e+02
1.287000000000000000e+03 1.043737289626755143e+02
1.288000000000000000e+03 1.348992344398144994e+01
1.289000000000000000e+03 6.112052207468852316e+01
1.290000000000000000e+03 4.405918132780269758e+01
1.291000000000000000e+03 8.877453049792092088e+01
1.292000000000000000e+03 1.281711406639005872e+02
1.293000000000000000e+03 6.156910867219599481e+01
1.294000000000000000e+03 3.216520097510382215e+01
1.295000000000000000e+03 4.167208033126178890e+01
1.296000000000000000e+03 1.535682402489659921e+02
1.297000000000000000e+03 1.224290543568351382e+02
1.298000000000000000e+03 8.971717402489426263e+01
1.299000000000000000e+03 6.834457175983433785e+01
1.300000000000000000e+03 5.309132684647551059e+00
1.301000000000000000e+03 2.867926695019387040e+01
1.302000000000000000e+03 1.136252840248966436e+02
1.303000000000000000e+03 8.331622095238084569e+01
1.304000000000000000e+03 5.687222688796438064e+01
1.305000000000000000e+03 0.000000000000000000e+00
1.306000000000000000e+03 0.000000000000000000e+00
1.307000000000000000e+03 0.000000000000000000e+00
1.308000000000000000e+03 0.000000000000000000e+00
1.309000000000000000e+03 0.000000000000000000e+00
1.310000000000000000e+03 0.000000000000000000e+00
1.311000000000000000e+03 0.000000000000000000e+00
1.312000000000000000e+03 0.000000000000000000e+00
1.313000000000000000e+03 0.000000000000000000e+00
1.314000000000000000e+03 0.000000000000000000e+00
1.315000000000000000e+03 0.000000000000000000e+00
1.316000000000000000e+03 0.000000000000000000e+00
1.317000000000000000e+03 0.000000000000000000e+00
1.318000000000000000e+03 0.000000000000000000e+00
1.319000000000000000e+03 0.000000000000000000e+00
1.320000000000000000e+03 0.000000000000000000e+00
1.321000000000000000e+03 0.000000000000000000e+00
1.322000000000000000e+03 0.000000000000000000e+00
1.323000000000000000e+03 0.000000000000000000e+00
1.324000000000000000e+03 0.000000000000000000e+00
1.325000000000000000e+03 0.000000000000000000e+00
1.326000000000000000e+03 0.000000000000000000e+00
1.327000000000000000e+03 0.000000000000000000e+00
1.328000000000000000e+03 0.000000000000000000e+00
1.329000000000000000e+03 0.000000000000000000e+00
1.330000000000000000e+03 0.000000000000000000e+00
1.331000000000000000e+03 0.000000000000000000e+00
1.332000000000000000e+03 0.000000000000000000e+00
1.333000000000000000e+03 0.000000000000000000e+00
1.334000000000000000e+03 0.000000000000000000e+00
1.335000000000000000e+03 0.000000000000000000e+00
1.336000000000000000e+03 0.000000000000000000e+00
1.337000000000000000e+03 0.000000000000000000e+00
1.338000000000000000e+03 0.000000000000000000e+00
1.339000000000000000e+03 0.000000000000000000e+00
1.340000000000000000e+03 0.000000000000000000e+00
1.341000000000000000e+03 0.000000000000000000e+00
1.342000000000000000e+03 0.000000000000000000e+00
1.343000000000000000e+03 0.000000000000000000e+00
1.344000000000000000e+03 0.000000000000000000e+00
1.345000000000000000e+03 0.000000000000000000e+00
1.346000000000000000e+03 0.000000000000000000e+00
1.347000000000000000e+03 0.000000000000000000e+00
1.348000000000000000e+03 0.000000000000000000e+00
1.349000000000000000e+03 0.000000000000000000e+00
1.350000000000000000e+03 0.000000000000000000e+00
1.351000000000000000e+03 0.000000000000000000e+00
1.352000000000000000e+03 0.000000000000000000e+00
1.353000000000000000e+03 0.000000000000000000e+00
1.354000000000000000e+03 0.000000000000000000e+00
1.355000000000000000e+03 0.000000000000000000e+00
1.356000000000000000e+03 0.000000000000000000e+00
1.357000000000000000e+03 0.000000000000000000e+00
1.358000000000000000e+03 0.000000000000000000e+00
1.359000000000000000e+03 0.000000000000000000e+00
1.360000000000000000e+03 0.000000000000000000e+00
1.361000000000000000e+03 0.000000000000000000e+00
1.362000000000000000e+03 0.000000000000000000e+00
1.363000000000000000e+03 0.000000000000000000e+00
1.364000000000000000e+03 0.000000000000000000e+00
1.365000000000000000e+03 0.000000000000000000e+00
1.366000000000000000e+03 0.000000000000000000e+00
1.367000000000000000e+03 0.000000000000000000e+00
1.368000000000000000e+03 0.000000000000000000e+00
1.369000000000000000e+03 0.000000000000000000e+00
1.370000000000000000e+03 0.000000000000000000e+00
1.371000000000000000e+03 0.000000000000000000e+00
1.372000000000000000e+03 0.000000000000000000e+00
1.373000000000000000e+03 0.000000000000000000e+00
1.374000000000000000e+03 0.000000000000000000e+00
1.375000000000000000e+03 0.000000000000000000e+00
1.376000000000000000e+03 0.000000000000000000e+00
1.377000000000000000e+03 0.000000000000000000e+00
1.378000000000000000e+03 0.000000000000000000e+00
1.379000000000000000e+03 0.000000000000000000e+00
1.380000000000000000e+03 0.000000000000000000e+00
1.381000000000000000e+03 0.000000000000000000e+00
1.382000000000000000e+03 0.000000000000000000e+00
1.383000000000000000e+03 0.000000000000000000e+00
1.384000000000000000e+03 0.000000000000000000e+00
1.385000000000000000e+03 0.000000000000000000e+00
1.386000000000000000e+03 0.000000000000000000e+00
1.387000000000000000e+03 0.000000000000000000e+00
1.388000000000000000e+03 0.000000000000000000e+00
1.389000000000000000e+03 0.000000000000000000e+00
1.390000000000000000e+03 0.000000000000000000e+00
1.391000000000000000e+03 0.000000000000000000e+00
1.392000000000000000e+03 0.000000000000000000e+00
1.393000000000000000e+03 0.000000000000000000e+00
1.394000000000000000e+03 0.000000000000000000e+00
1.395000000000000000e+03 0.000000000000000000e+00
1.396000000000000000e+03 0.000000000000000000e+00
1.397000000000000000e+03 0.000000000000000000e+00
1.398000000000000000e+03 0.000000000000000000e+00
1.399000000000000000e+03 0.000000000000000000e+00
1.400000000000000000e+03 0.000000000000000000e+00
1.401000000000000000e+03 0.000000000000000000e+00
1.402000000000000000e+03 0.000000000000000000e+00
1.403000000000000000e+03 0.000000000000000000e+00
1.404000000000000000e+03 0.000000000000000000e+00
1.405000000000000000e+03 0.000000000000000000e+00
1.406000000000000000e+03 0.000000000000000000e+00
1.407000000000000000e+03 0.000000000000000000e+00
1.408000000000000000e+03 0.000000000000000000e+00
1.409000000000000000e+03 0.000000000000000000e+00
1.410000000000000000e+03 0.000000000000000000e+00
1.411000000000000000e+03 0.000000000000000000e+00
1.412000000000000000e+03 0.000000000000000000e+00
1.413000000000000000e+03 0.000000000000000000e+00
1.414000000000000000e+03 0.000000000000000000e+00
1.415000000000000000e+03 0.000000000000000000e+00
1.416000000000000000e+03 0.000000000000000000e+00
1.417000000000000000e+03 0.000000000000000000e+00
1.418000000000000000e+03 0.000000000000000000e+00
1.419000000000000000e+03 0.000000000000000000e+00
1.420000000000000000e+03 0.000000000000000000e+00
1.421000000000000000e+03 0.000000000000000000e+00
1.422000000000000000e+03 0.000000000000000000e+00
1.423000000000000000e+03 0.000000000000000000e+00
1.424000000000000000e+03 0.000000000000000000e+00
1.425000000000000000e+03 0.000000000000000000e+00
1.426000000000000000e+03 0.000000000000000000e+00
1.427000000000000000e+03 0.000000000000000000e+00
1.428000000000000000e+03 0.000000000000000000e+00
1.429000000000000000e+03 0.000000000000000000e+00
1.430000000000000000e+03 0.000000000000000000e+00
1.431000000000000000e+03 0.000000000000000000e+00
1.432000000000000000e+03 0.000000000000000000e+00
1.433000000000000000e+03 0.000000000000000000e+00
1.434000000000000000e+03 0.000000000000000000e+00
1.435000000000000000e+03 0.000000000000000000e+00
1.436000000000000000e+03 0.000000000000000000e+00
1.437000000000000000e+03 0.000000000000000000e+00
1.438000000000000000e+03 0.000000000000000000e+00
1.439000000000000000e+03 0.000000000000000000e+00
1.440000000000000000e+03 0.000000000000000000e+00
1.441000000000000000e+03 0.000000000000000000e+00
1.442000000000000000e+03 0.000000000000000000e+00
1.443000000000000000e+03 0.000000000000000000e+00
1.444000000000000000e+03 0.000000000000000000e+00
1.445000000000000000e+03 0.000000000000000000e+00
1.446000000000000000e+03 0.000000000000000000e+00
1.447000000000000000e+03 0.000000000000000000e+00
1.448000000000000000e+03 0.000000000000000000e+00
1.449000000000000000e+03 0.000000000000000000e+00
1.450000000000000000e+03 0.000000000000000000e+00
1.451000000000000000e+03 0.000000000000000000e+00
1.452000000000000000e+03 0.000000000000000000e+00
1.453000000000000000e+03 0.000000000000000000e+00
1.454000000000000000e+03 0.000000000000000000e+00
1.455000000000000000e+03 0.000000000000000000e+00
1.456000000000000000e+03 0.000000000000000000e+00
1.457000000000000000e+03 0.000000000000000000e+00
1.458000000000000000e+03 0.000000000000000000e+00
1.459000000000000000e+03 0.000000000000000000e+00
1.460000000000000000e+03 0.000000000000000000e+00
1.461000000000000000e+03 0.000000000000000000e+00
1.462000000000000000e+03 0.000000000000000000e+00
1.463000000000000000e+03 0.000000000000000000e+00
1.464000000000000000e+03 0.000000000000000000e+00
1.465000000000000000e+03 0.000000000000000000e+00
1.466000000000000000e+03 0.000000000000000000e+00
1.467000000000000000e+03 0.000000000000000000e+00
1.468000000000000000e+03 0.000000000000000000e+00
1.469000000000000000e+03 0.000000000000000000e+00
1.470000000000000000e+03 0.000000000000000000e+00
1.471000000000000000e+03 0.000000000000000000e+00
1.472000000000000000e+03 0.000000000000000000e+00
1.473000000000000000e+03 0.000000000000000000e+00
1.474000000000000000e+03 0.000000000000000000e+00
1.475000000000000000e+03 0.000000000000000000e+00
1.476000000000000000e+03 0.000000000000000000e+00
1.477000000000000000e+03 0.000000000000000000e+00
1.478000000000000000e+03 0.000000000000000000e+00
1.479000000000000000e+03 0.000000000000000000e+00
1.480000000000000000e+03 0.000000000000000000e+00
1.481000000000000000e+03 0.000000000000000000e+00
1.482000000000000000e+03 0.000000000000000000e+00
1.483000000000000000e+03 0.000000000000000000e+00
1.484000000000000000e+03 0.000000000000000000e+00
1.485000000000000000e+03 0.000000000000000000e+00
1.486000000000000000e+03 0.000000000000000000e+00
1.487000000000000000e+03 0.000000000000000000e+00
1.488000000000000000e+03 0.000000000000000000e+00
1.489000000000000000e+03 0.000000000000000000e+00
1.490000000000000000e+03 0.000000000000000000e+00
1.491000000000000000e+03 0.000000000000000000e+00
1.492000000000000000e+03 0.000000000000000000e+00
1.493000000000000000e+03 0.000000000000000000e+00
1.494000000000000000e+03 0.000000000000000000e+00
1.495000000000000000e+03 0.000000000000000000e+00
1.496000000000000000e+03 0.000000000000000000e+00
1.497000000000000000e+03 0.000000000000000000e+00
1.498000000000000000e+03 0.000000000000000000e+00
1.499000000000000000e+03 0.000000000000000000e+00
1.500000000000000000e+03 0.000000000000000000e+00
