1.010000000000000000e+02 0.000000000000000000e+00
1.020000000000000000e+02 0.000000000000000000e+00
1.030000000000000000e+02 0.000000000000000000e+00
1.040000000000000000e+02 0.000000000000000000e+00
1.050000000000000000e+02 0.000000000000000000e+00
1.060000000000000000e+02 0.000000000000000000e+00
1.070000000000000000e+02 0.000000000000000000e+00
1.080000000000000000e+02 0.000000000000000000e+00
1.090000000000000000e+02 0.000000000000000000e+00
1.100000000000000000e+02 0.000000000000000000e+00
1.110000000000000000e+02 0.000000000000000000e+00
1.120000000000000000e+02 0.000000000000000000e+00
1.130000000000000000e+02 0.000000000000000000e+00
1.140000000000000000e+02 0.000000000000000000e+00
1.150000000000000000e+02 0.000000000000000000e+00
1.160000000000000000e+02 0.000000000000000000e+00
1.170000000000000000e+02 0.000000000000000000e+00
1.180000000000000000e+02 0.000000000000000000e+00
1.190000000000000000e+02 0.000000000000000000e+00
1.200000000000000000e+02 0.000000000000000000e+00
1.210000000000000000e+02 2.460497859365263218e-01
1.220000000000000000e+02 1.141613230864972763e+02
1.230000000000000000e+02 2.073633500311139812e+02
1.240000000000000000e+02 3.113161951462360548e+02
1.250000000000000000e+02 4.414557389753164784e+02
1.260000000000000000e+02 5.656246145997509984e+02
1.270000000000000000e+02 5.710137856461315096e+02
1.280000000000000000e+02 5.544026655880521730e+02
1.290000000000000000e+02 5.265868255288261253e+02
1.300000000000000000e+02 4.383077127774313908e+02
1.310000000000000000e+02 3.901982928230655716e+02
1.320000000000000000e+02 3.055817296142683404e+02
1.330000000000000000e+02 2.157948968263852976e+02
1.340000000000000000e+02 1.769823862269237793e+02
1.350000000000000000e+02 2.003969085459449957e+02
1.360000000000000000e+02 2.014678506741340129e+02
1.370000000000000000e+02 1.839664341630365527e+02
1.380000000000000000e+02 1.891502766279556624e+02
1.390000000000000000e+02 1.370872007259901295e+02
1.400000000000000000e+02 1.004085257000621709e+02
1.410000000000000000e+02 7.198226426793875987e+01
1.420000000000000000e+02 5.429532145612937200e+01
1.430000000000000000e+02 6.296879805641982131e+01
1.440000000000000000e+02 4.519367746785557927e+01
1.450000000000000000e+02 3.162754111802530943e+01
1.460000000000000000e+02 2.412824439950229660e+01
1.470000000000000000e+02 4.028021177934359542e+00
1.480000000000000000e+02 3.547811406347250340e+01
1.490000000000000000e+02 4.120513940053931634e+01
1.500000000000000000e+02 3.926812642057229397e+01
1.510000000000000000e+02 5.021421952084550355e+01
1.520000000000000000e+02 1.567239848579180617e+01
1.530000000000000000e+02 4.043529459240819790e+01
1.540000000000000000e+02 1.065284895602563182e+02
1.550000000000000000e+02 2.412712489110130321e+02
1.560000000000000000e+02 3.477164326420584075e+02
1.570000000000000000e+02 4.981755074258456943e+02
1.580000000000000000e+02 6.622316664592403868e+02
1.590000000000000000e+02 8.304172484653652191e+02
1.600000000000000000e+02 1.009458011138769848e+03
1.610000000000000000e+02 1.149105760630575332e+03
1.620000000000000000e+02 1.316856024056407705e+03
1.630000000000000000e+02 1.500239538684918671e+03
1.640000000000000000e+02 1.657224689483507518e+03
1.650000000000000000e+02 1.819273222775358363e+03
1.660000000000000000e+02 1.894383259282306426e+03
1.670000000000000000e+02 1.874936002281684523e+03
1.680000000000000000e+02 1.791588562124041118e+03
1.690000000000000000e+02 1.684847915370253986e+03
1.700000000000000000e+02 1.528497065339140590e+03
1.710000000000000000e+02 1.352754856046464283e+03
1.720000000000000000e+02 1.177265442231903990e+03
1.730000000000000000e+02 9.908281103920324995e+02
1.740000000000000000e+02 7.738865286869936426e+02
1.750000000000000000e+02 5.653369872433108867e+02
1.760000000000000000e+02 3.850573548433948190e+02
1.770000000000000000e+02 2.330514721692227340e+02
1.780000000000000000e+02 1.170948837710012640e+02
1.790000000000000000e+02 3.777946156813933243e+01
1.800000000000000000e+02 1.360670039410823318e+00
1.810000000000000000e+02 5.747133046048574556e+00
1.820000000000000000e+02 4.263808339141333725e+00
1.830000000000000000e+02 2.770396008089601736e+00
1.840000000000000000e+02 2.156878617506721341e+01
1.850000000000000000e+02 7.187164321717435200e+01
1.860000000000000000e+02 1.130473492221533292e+02
1.870000000000000000e+02 1.041008527691349173e+02
1.880000000000000000e+02 6.502723015142092322e+01
1.890000000000000000e+02 1.249517839659872820e+01
1.900000000000000000e+02 1.050797291889658993e+02
1.910000000000000000e+02 9.295823360638715371e+01
1.920000000000000000e+02 6.715268766645927201e+01
1.930000000000000000e+02 4.252412749014752791e+01
1.940000000000000000e+02 1.043535915387756496e+01
1.950000000000000000e+02 1.074204427712099630e+02
1.960000000000000000e+02 1.762054509645302574e+02
1.970000000000000000e+02 2.640474912466288515e+02
1.980000000000000000e+02 3.856896153909964369e+02
1.990000000000000000e+02 4.652454153287707186e+02
2.000000000000000000e+02 5.367270224019916895e+02
2.010000000000000000e+02 5.786799347853141171e+02
2.020000000000000000e+02 5.655902767268205480e+02
2.030000000000000000e+02 4.844812730968667438e+02
2.040000000000000000e+02 3.528696653183979492e+02
2.050000000000000000e+02 2.463274049159925596e+02
2.060000000000000000e+02 1.558312164903556720e+02
2.070000000000000000e+02 6.585215752955868140e+01
2.080000000000000000e+02 2.392967962663324855e+01
2.090000000000000000e+02 2.335873736212200846e+00
2.100000000000000000e+02 1.597358192408189481e+01
2.110000000000000000e+02 5.629886481020494671e+01
2.120000000000000000e+02 9.609196797137573753e+01
2.130000000000000000e+02 1.971371894627673669e+02
2.140000000000000000e+02 3.090888051026755079e+02
2.150000000000000000e+02 4.406234986309876263e+02
2.160000000000000000e+02 6.265218354283365443e+02
2.170000000000000000e+02 8.305861438290822889e+02
2.180000000000000000e+02 1.034684663762704076e+03
2.190000000000000000e+02 1.250020905413812443e+03
2.200000000000000000e+02 1.475560395146233532e+03
2.210000000000000000e+02 1.667361412777433316e+03
2.220000000000000000e+02 1.881924218419415183e+03
2.230000000000000000e+02 2.066251849408835369e+03
2.240000000000000000e+02 2.202023168637212166e+03
2.250000000000000000e+02 2.310742265919934198e+03
2.260000000000000000e+02 2.370476831777639745e+03
2.270000000000000000e+02 2.403741174445135584e+03
2.280000000000000000e+02 2.336221385812073549e+03
2.290000000000000000e+02 2.117288121344117371e+03
2.300000000000000000e+02 1.837587542833436146e+03
2.310000000000000000e+02 1.513904579755238274e+03
2.320000000000000000e+02 1.211304318540026770e+03
2.330000000000000000e+02 9.706747924704396837e+02
2.340000000000000000e+02 8.116749510267570713e+02
2.350000000000000000e+02 6.790375700124428704e+02
2.360000000000000000e+02 6.175918486828459208e+02
2.370000000000000000e+02 6.087409550093341295e+02
2.380000000000000000e+02 6.137178825554865398e+02
2.390000000000000000e+02 6.500551190624352103e+02
2.400000000000000000e+02 6.608230703588467350e+02
2.410000000000000000e+02 6.460890079651526321e+02
2.420000000000000000e+02 5.924471497199742771e+02
2.430000000000000000e+02 4.539822440157637971e+02
2.440000000000000000e+02 3.685168184194151308e+02
2.450000000000000000e+02 2.747598685127577482e+02
2.460000000000000000e+02 1.740260384567505980e+02
2.470000000000000000e+02 9.794445609705472577e+01
2.480000000000000000e+02 4.271719882596975992e+01
2.490000000000000000e+02 2.902963943580163786e+01
2.500000000000000000e+02 4.324785058896718226e+01
2.510000000000000000e+02 7.090814316739293588e+01
2.520000000000000000e+02 1.117564961626219286e+02
2.530000000000000000e+02 1.406573048527580738e+02
2.540000000000000000e+02 1.601652684920138654e+02
2.550000000000000000e+02 1.683288483509645346e+02
2.560000000000000000e+02 1.539092629614274301e+02
2.570000000000000000e+02 8.655646974071598265e+01
2.580000000000000000e+02 7.720234835926187600e+01
2.590000000000000000e+02 1.269301183157007102e+02
2.600000000000000000e+02 2.114399347230844910e+02
2.610000000000000000e+02 3.182371984857886105e+02
2.620000000000000000e+02 5.188651565235403496e+02
2.630000000000000000e+02 8.289999368388246239e+02
2.640000000000000000e+02 1.213078660858735020e+03
2.650000000000000000e+02 1.623058401991287838e+03
2.660000000000000000e+02 2.081557856461312440e+03
2.670000000000000000e+02 2.578420707529552146e+03
2.680000000000000000e+02 3.096596796307824206e+03
2.690000000000000000e+02 3.605222077162415644e+03
2.700000000000000000e+02 4.072531796515244423e+03
2.710000000000000000e+02 4.562142024683671480e+03
2.720000000000000000e+02 5.073922850860823019e+03
2.730000000000000000e+02 5.481042439327941793e+03
2.740000000000000000e+02 5.637681005184570495e+03
2.750000000000000000e+02 5.469397595727020416e+03
2.760000000000000000e+02 4.985933365484329443e+03
2.770000000000000000e+02 4.221593703027792799e+03
2.780000000000000000e+02 3.351155187305539130e+03
2.790000000000000000e+02 2.651678327732821344e+03
2.800000000000000000e+02 2.129614221070096391e+03
2.810000000000000000e+02 1.745329813109319957e+03
2.820000000000000000e+02 1.485944100186688502e+03
2.830000000000000000e+02 1.325200335130652775e+03
2.840000000000000000e+02 1.154637254926365586e+03
2.850000000000000000e+02 1.075177851275669582e+03
2.860000000000000000e+02 1.020869335926156168e+03
2.870000000000000000e+02 9.950140058494087043e+02
2.880000000000000000e+02 1.059215830118232361e+03
2.890000000000000000e+02 1.103970463804190558e+03
2.900000000000000000e+02 1.158633604438913608e+03
2.910000000000000000e+02 1.230076286869944170e+03
2.920000000000000000e+02 1.315340927815807845e+03
2.930000000000000000e+02 1.421536647790916504e+03
2.940000000000000000e+02 1.549575295996682598e+03
2.950000000000000000e+02 1.702082752126110563e+03
2.960000000000000000e+02 1.808109973242067326e+03
2.970000000000000000e+02 1.808168373781372793e+03
2.980000000000000000e+02 1.794734093963908208e+03
2.990000000000000000e+02 1.694739433312593746e+03
3.000000000000000000e+02 1.572005975528823683e+03
3.010000000000000000e+02 1.490415124455507566e+03
3.020000000000000000e+02 1.466981601120099413e+03
3.030000000000000000e+02 1.495161204894234061e+03
3.040000000000000000e+02 1.545074885086081622e+03
3.050000000000000000e+02 1.620325023646545560e+03
3.060000000000000000e+02 1.717051524678556689e+03
3.070000000000000000e+02 1.792225829288529894e+03
3.080000000000000000e+02 1.893938423356150452e+03
3.090000000000000000e+02 2.003164044794692700e+03
3.100000000000000000e+02 2.085275341144754293e+03
3.110000000000000000e+02 2.125319272764986636e+03
3.120000000000000000e+02 2.189380275461523070e+03
3.130000000000000000e+02 2.099913954573735282e+03
3.140000000000000000e+02 1.892037434349715113e+03
3.150000000000000000e+02 1.630561495125488591e+03
3.160000000000000000e+02 1.338617477079450509e+03
3.170000000000000000e+02 1.074369044389132796e+03
3.180000000000000000e+02 8.919099944617269102e+02
3.190000000000000000e+02 7.774246055382715213e+02
3.200000000000000000e+02 7.008542241443694820e+02
3.210000000000000000e+02 6.680215233976358604e+02
3.220000000000000000e+02 6.631422669778054342e+02
3.230000000000000000e+02 6.264633866210336919e+02
3.240000000000000000e+02 5.775575016179220711e+02
3.250000000000000000e+02 5.687821215100600512e+02
3.260000000000000000e+02 5.083057195602574438e+02
3.270000000000000000e+02 4.252941643849808315e+02
3.280000000000000000e+02 3.339799228998122089e+02
3.290000000000000000e+02 2.462969252229823667e+02
3.300000000000000000e+02 1.644733886538025160e+02
3.310000000000000000e+02 1.205406851275665900e+02
3.320000000000000000e+02 5.667410243932546621e+01
3.330000000000000000e+02 6.168828048538802733e+00
3.340000000000000000e+02 -1.023851187886286596e+01
3.350000000000000000e+02 -3.180373991702805014e+01
3.360000000000000000e+02 -2.367446135657125694e+00
3.370000000000000000e+02 -1.751989096764364540e+00
3.380000000000000000e+02 6.621771881144852046e+01
3.390000000000000000e+02 1.121628160817260351e+02
3.400000000000000000e+02 1.359729889856861575e+02
3.410000000000000000e+02 2.560308066569874654e+02
3.420000000000000000e+02 3.629215880522717157e+02
3.430000000000000000e+02 4.781219799419205287e+02
3.440000000000000000e+02 6.019582309000417126e+02
3.450000000000000000e+02 7.166173269446185259e+02
3.460000000000000000e+02 8.058565536403241367e+02
3.470000000000000000e+02 8.638612361468277641e+02
3.480000000000000000e+02 8.944742414644269957e+02
3.490000000000000000e+02 9.055861138975315043e+02
3.500000000000000000e+02 8.380307474906692278e+02
3.510000000000000000e+02 7.532865537121546140e+02
3.520000000000000000e+02 6.660453574154716989e+02
3.530000000000000000e+02 5.807693227960996865e+02
3.540000000000000000e+02 5.488155538477504933e+02
3.550000000000000000e+02 4.810474896079668952e+02
3.560000000000000000e+02 4.239017949180658320e+02
3.570000000000000000e+02 4.008140272972412959e+02
3.580000000000000000e+02 4.009267928023230638e+02
3.590000000000000000e+02 4.159666690105781868e+02
3.600000000000000000e+02 4.693795413814560789e+02
3.610000000000000000e+02 4.893787622070111638e+02
3.620000000000000000e+02 4.951057405517522056e+02
3.630000000000000000e+02 5.482589105372331915e+02
3.640000000000000000e+02 5.199903406969507387e+02
3.650000000000000000e+02 4.932084284795686244e+02
3.660000000000000000e+02 4.795081685749842109e+02
3.670000000000000000e+02 4.526579531217581120e+02
3.680000000000000000e+02 3.742043174201569400e+02
3.690000000000000000e+02 3.034117869321700027e+02
3.700000000000000000e+02 2.292298537647776016e+02
3.710000000000000000e+02 1.512491727498961325e+02
3.720000000000000000e+02 7.967342124455637986e+01
3.730000000000000000e+02 3.688821992532666627e+01
3.740000000000000000e+02 2.190430763998339003e+01
3.750000000000000000e+02 2.009159090022815519e+01
3.760000000000000000e+02 3.001133320680323990e+01
3.770000000000000000e+02 5.489786216715041434e+01
3.780000000000000000e+02 9.134114949595496569e+01
3.790000000000000000e+02 1.315717232109516317e+02
3.800000000000000000e+02 1.732841590748810745e+02
3.810000000000000000e+02 2.182896750674135546e+02
3.820000000000000000e+02 2.732135489110141293e+02
3.830000000000000000e+02 3.504822229620422718e+02
3.840000000000000000e+02 4.125651799419214285e+02
3.850000000000000000e+02 4.856042536195815273e+02
3.860000000000000000e+02 5.436548749637008768e+02
3.870000000000000000e+02 5.482365455507157321e+02
3.880000000000000000e+02 5.539688357809583295e+02
3.890000000000000000e+02 5.329715046463396675e+02
3.900000000000000000e+02 4.689731474175468406e+02
3.910000000000000000e+02 3.527422298070907232e+02
3.920000000000000000e+02 2.052801001866807837e+02
3.930000000000000000e+02 1.343324058701520869e+02
3.940000000000000000e+02 9.392815126322540209e+01
3.950000000000000000e+02 4.544625689340439578e+01
3.960000000000000000e+02 1.334539433105163475e+01
3.970000000000000000e+02 -9.813117283136437052e+00
3.980000000000000000e+02 -9.401088756532638868e+00
3.990000000000000000e+02 -1.312439572702758817e+01
4.000000000000000000e+02 4.754696272856111960e+00
4.010000000000000000e+02 2.087271114890094736e+01
4.020000000000000000e+02 3.605667034225290024e+01
4.030000000000000000e+02 8.075157728272145619e+01
4.040000000000000000e+02 1.324963245541277956e+02
4.050000000000000000e+02 2.033235945861875962e+02
4.060000000000000000e+02 3.305396722256805333e+02
4.070000000000000000e+02 4.481226870566226808e+02
4.080000000000000000e+02 6.628137557560734194e+02
4.090000000000000000e+02 9.364648258867511004e+02
4.100000000000000000e+02 1.245323902302420947e+03
4.110000000000000000e+02 1.593478649242886604e+03
4.120000000000000000e+02 2.007943973449489249e+03
4.130000000000000000e+02 2.501701674756269313e+03
4.140000000000000000e+02 2.993666565027995148e+03
4.150000000000000000e+02 3.539155725575594261e+03
4.160000000000000000e+02 4.158274526239368242e+03
4.170000000000000000e+02 4.775831465048740938e+03
4.180000000000000000e+02 5.527610951462343110e+03
4.190000000000000000e+02 6.228887278158063964e+03
4.200000000000000000e+02 6.947156862269240264e+03
4.210000000000000000e+02 7.675864160514308423e+03
4.220000000000000000e+02 8.222049418585360399e+03
4.230000000000000000e+02 8.455415225886745247e+03
4.240000000000000000e+02 8.343954470759023025e+03
4.250000000000000000e+02 7.937599963285611011e+03
4.260000000000000000e+02 7.313036975316310418e+03
4.270000000000000000e+02 6.586970901700540708e+03
4.280000000000000000e+02 5.911561791537039426e+03
4.290000000000000000e+02 5.448067257830322887e+03
4.300000000000000000e+02 5.150183819991704695e+03
4.310000000000000000e+02 4.932120446795273892e+03
4.320000000000000000e+02 4.789143724953331912e+03
4.330000000000000000e+02 4.776640959551959895e+03
4.340000000000000000e+02 4.753949995644057708e+03
4.350000000000000000e+02 4.657976165318400490e+03
4.360000000000000000e+02 4.530692576228999314e+03
4.370000000000000000e+02 4.491538434349719864e+03
4.380000000000000000e+02 4.540434326280854293e+03
4.390000000000000000e+02 4.714541840074671200e+03
4.400000000000000000e+02 4.979422387056630214e+03
4.410000000000000000e+02 5.324374566894837699e+03
4.420000000000000000e+02 5.797507239161999678e+03
4.430000000000000000e+02 6.409283452188356023e+03
4.440000000000000000e+02 7.010584264260535747e+03
4.450000000000000000e+02 7.643083331051655477e+03
4.460000000000000000e+02 8.334325517112612943e+03
4.470000000000000000e+02 9.038714261149152662e+03
4.480000000000000000e+02 9.615673830325651579e+03
4.490000000000000000e+02 1.002417844036506358e+04
4.500000000000000000e+02 1.032032513378966360e+04
4.510000000000000000e+02 1.049803108276291277e+04
4.520000000000000000e+02 1.048346031528728417e+04
4.530000000000000000e+02 1.040116736776602556e+04
4.540000000000000000e+02 1.019003741754822477e+04
4.550000000000000000e+02 9.698807469197263345e+03
4.560000000000000000e+02 8.951526811657337021e+03
4.570000000000000000e+02 8.096419552375014973e+03
4.580000000000000000e+02 7.052663253681801507e+03
4.590000000000000000e+02 6.049704771001865993e+03
4.600000000000000000e+02 5.101560529558162671e+03
4.610000000000000000e+02 4.244659357394720246e+03
4.620000000000000000e+02 3.540728239734546150e+03
4.630000000000000000e+02 2.923308961418801573e+03
4.640000000000000000e+02 2.447813691972609377e+03
4.650000000000000000e+02 2.028147312318536706e+03
4.660000000000000000e+02 1.664616225471899043e+03
4.670000000000000000e+02 1.406616662310729453e+03
4.680000000000000000e+02 1.201413659477398141e+03
4.690000000000000000e+02 1.011090259738645273e+03
4.700000000000000000e+02 8.294136308649684679e+02
4.710000000000000000e+02 6.627894019079221835e+02
4.720000000000000000e+02 5.237331311138769934e+02
4.730000000000000000e+02 4.249573257622906794e+02
4.740000000000000000e+02 2.735922660651332308e+02
4.750000000000000000e+02 1.795366515660647906e+02
4.760000000000000000e+02 1.274602574569589990e+02
4.770000000000000000e+02 7.395094568761678033e+01
4.780000000000000000e+02 5.188409950217781130e+01
4.790000000000000000e+02 5.105181651109744934e+01
4.800000000000000000e+02 9.167623669363234740e+01
4.810000000000000000e+02 1.397546559842365639e+02
4.820000000000000000e+02 1.635278001244556663e+02
4.830000000000000000e+02 1.710570636589921492e+02
4.840000000000000000e+02 2.180123968678685173e+02
4.850000000000000000e+02 2.512616991702970211e+02
4.860000000000000000e+02 3.079535532047310653e+02
4.870000000000000000e+02 4.035728990043544400e+02
4.880000000000000000e+02 5.143605966811845747e+02
4.890000000000000000e+02 6.073658055993342941e+02
4.900000000000000000e+02 7.044541283965976390e+02
4.910000000000000000e+02 8.313575449284363685e+02
4.920000000000000000e+02 9.824482680008283069e+02
4.930000000000000000e+02 1.130841372121966742e+03
4.940000000000000000e+02 1.280586204521883019e+03
4.950000000000000000e+02 1.456485465367068628e+03
4.960000000000000000e+02 1.596486823895458656e+03
4.970000000000000000e+02 1.713643128396598968e+03
4.980000000000000000e+02 1.835201875570304992e+03
4.990000000000000000e+02 1.917566272350136160e+03
5.000000000000000000e+02 1.951345019290604114e+03
5.010000000000000000e+02 1.979524397013067301e+03
5.020000000000000000e+02 1.985221710018669000e+03
5.030000000000000000e+02 1.970539056627256286e+03
5.040000000000000000e+02 1.989081623936942606e+03
5.050000000000000000e+02 1.959058881144991119e+03
5.060000000000000000e+02 1.979241683468158953e+03
5.070000000000000000e+02 1.995180690105787335e+03
5.080000000000000000e+02 1.979556723708774143e+03
5.090000000000000000e+02 1.977611001244555155e+03
5.100000000000000000e+02 1.958841126944617145e+03
5.110000000000000000e+02 1.911311995851483061e+03
5.120000000000000000e+02 1.865979394523956216e+03
5.130000000000000000e+02 1.846506271727857893e+03
5.140000000000000000e+02 1.872437378344739500e+03
5.150000000000000000e+02 1.987283318332635872e+03
5.160000000000000000e+02 2.110562447210118989e+03
5.170000000000000000e+02 2.234901499688857257e+03
5.180000000000000000e+02 2.376215048112812383e+03
5.190000000000000000e+02 2.532939159303048200e+03
5.200000000000000000e+02 2.636490827214270666e+03
5.210000000000000000e+02 2.551822810866859982e+03
5.220000000000000000e+02 2.389011499066581109e+03
5.230000000000000000e+02 2.157222359054134358e+03
5.240000000000000000e+02 1.840732974699284341e+03
5.250000000000000000e+02 1.457718112839646210e+03
5.260000000000000000e+02 1.093980925948961158e+03
5.270000000000000000e+02 7.466044051016347112e+02
5.280000000000000000e+02 4.772488250155459468e+02
5.290000000000000000e+02 2.873172493880866796e+02
5.300000000000000000e+02 1.441279938726444811e+02
5.310000000000000000e+02 9.799959530595339174e+01
5.320000000000000000e+02 7.825912768512969819e+01
5.330000000000000000e+02 5.520767126944642911e+01
5.340000000000000000e+02 4.278530553826987415e+01
5.350000000000000000e+02 3.036727837585537415e+01
5.360000000000000000e+02 3.477235902302412995e+01
5.370000000000000000e+02 2.928829379174451120e+01
5.380000000000000000e+02 4.299868209500110083e+01
5.390000000000000000e+02 4.912144102675803481e+01
5.400000000000000000e+02 4.756323968886130160e+01
5.410000000000000000e+02 6.859027950840084031e+01
5.420000000000000000e+02 9.404246226301560796e+01
5.430000000000000000e+02 1.188668948154302143e+02
5.440000000000000000e+02 1.867748388923478160e+02
5.450000000000000000e+02 2.870712095208485266e+02
5.460000000000000000e+02 4.585940923475768045e+02
5.470000000000000000e+02 6.859012628915211280e+02
5.480000000000000000e+02 8.998041565028028117e+02
5.490000000000000000e+02 1.176773873911245119e+03
5.500000000000000000e+02 1.516635804604860141e+03
5.510000000000000000e+02 1.868764739265714979e+03
5.520000000000000000e+02 2.211685665076738132e+03
5.530000000000000000e+02 2.657534120721841646e+03
5.540000000000000000e+02 3.112463051649034242e+03
5.550000000000000000e+02 3.648305260734298827e+03
5.560000000000000000e+02 4.263568459033401268e+03
5.570000000000000000e+02 4.894572198091682367e+03
5.580000000000000000e+02 5.493545900643029199e+03
5.590000000000000000e+02 6.146625202862480364e+03
5.600000000000000000e+02 6.837551216967431174e+03
5.610000000000000000e+02 7.493191397635352587e+03
5.620000000000000000e+02 8.005226034640116268e+03
5.630000000000000000e+02 8.208226214685750165e+03
5.640000000000000000e+02 7.933123739887986630e+03
5.650000000000000000e+02 7.175907867662313947e+03
5.660000000000000000e+02 6.042765128189187635e+03
5.670000000000000000e+02 4.891233778884055937e+03
5.680000000000000000e+02 3.969018555693845428e+03
5.690000000000000000e+02 3.198546440572490155e+03
5.700000000000000000e+02 2.637153159510475689e+03
5.710000000000000000e+02 2.314489235220905812e+03
5.720000000000000000e+02 2.162417744451358431e+03
5.730000000000000000e+02 2.099158963285625759e+03
5.740000000000000000e+02 2.094761359676414941e+03
5.750000000000000000e+02 2.195949019912881340e+03
5.760000000000000000e+02 2.317533249325865199e+03
5.770000000000000000e+02 2.450302851275666399e+03
5.780000000000000000e+02 2.619194839452395172e+03
5.790000000000000000e+02 2.847122018668322653e+03
5.800000000000000000e+02 3.134333859780122111e+03
5.810000000000000000e+02 3.426881412984855615e+03
5.820000000000000000e+02 3.748250833851893276e+03
5.830000000000000000e+02 4.062516913313970235e+03
5.840000000000000000e+02 4.359589778884051157e+03
5.850000000000000000e+02 4.645079389960591470e+03
5.860000000000000000e+02 4.889663044379921303e+03
5.870000000000000000e+02 5.069352443061603481e+03
5.880000000000000000e+02 5.264548222982778498e+03
5.890000000000000000e+02 5.482119469099953676e+03
5.900000000000000000e+02 5.719929109105989482e+03
5.910000000000000000e+02 5.991178804604845936e+03
5.920000000000000000e+02 6.271067456242218213e+03
5.930000000000000000e+02 6.614673183779290412e+03
5.940000000000000000e+02 6.864532289981324539e+03
5.950000000000000000e+02 7.017479442762337385e+03
5.960000000000000000e+02 7.091173044181706246e+03
5.970000000000000000e+02 6.960315707736988770e+03
5.980000000000000000e+02 6.711055458825968344e+03
5.990000000000000000e+02 6.356718769342459382e+03
6.000000000000000000e+02 5.921511685749844219e+03
6.010000000000000000e+02 5.477970207840687181e+03
6.020000000000000000e+02 5.094157879693000723e+03
6.030000000000000000e+02 4.722617442231894529e+03
6.040000000000000000e+02 4.458237408006644728e+03
6.050000000000000000e+02 4.189735286869955416e+03
6.060000000000000000e+02 3.973555358431853620e+03
6.070000000000000000e+02 3.827284383115541004e+03
6.080000000000000000e+02 3.672146119684718997e+03
6.090000000000000000e+02 3.562938859394447718e+03
6.100000000000000000e+02 3.446027275668951916e+03
6.110000000000000000e+02 3.292267010786148603e+03
6.120000000000000000e+02 3.091867821236006421e+03
6.130000000000000000e+02 2.846402959759387159e+03
6.140000000000000000e+02 2.585306471686373243e+03
6.150000000000000000e+02 2.373511488593943341e+03
6.160000000000000000e+02 2.117852546152245395e+03
6.170000000000000000e+02 1.852931623522086738e+03
6.180000000000000000e+02 1.598588820784065774e+03
6.190000000000000000e+02 1.352757150798586281e+03
6.200000000000000000e+02 1.147088169846530036e+03
6.210000000000000000e+02 9.690706942128128958e+02
6.220000000000000000e+02 8.492505624144332614e+02
6.230000000000000000e+02 7.484489486620979051e+02
6.240000000000000000e+02 6.383589140842093457e+02
6.250000000000000000e+02 5.269831353453621432e+02
6.260000000000000000e+02 4.769908051649055665e+02
6.270000000000000000e+02 4.022898454262626160e+02
6.280000000000000000e+02 3.538110902509844777e+02
6.290000000000000000e+02 3.167717023853978162e+02
6.300000000000000000e+02 2.649610578510690289e+02
6.310000000000000000e+02 2.156837797759805824e+02
6.320000000000000000e+02 1.972166402613564173e+02
6.330000000000000000e+02 1.635031422733869420e+02
6.340000000000000000e+02 1.139359477079440239e+02
6.350000000000000000e+02 8.024361853764716557e+01
6.360000000000000000e+02 6.599769647168571396e+01
6.370000000000000000e+02 4.486943362919942757e+01
6.380000000000000000e+02 3.954812915784993521e+01
6.390000000000000000e+02 1.577802238083496889e+01
6.400000000000000000e+02 2.734441101202750701e+01
6.410000000000000000e+02 3.945282490354680593e+00
6.420000000000000000e+02 4.397876989213708399e+00
6.430000000000000000e+02 1.523606657818348609e+01
6.440000000000000000e+02 8.722215020120376749e+00
6.450000000000000000e+02 3.922811645924137736e+01
6.460000000000000000e+02 3.692777019493889412e+01
6.470000000000000000e+02 3.582582131093140987e+01
6.480000000000000000e+02 5.679617004148516912e+01
6.490000000000000000e+02 1.536624969929395590e+01
6.500000000000000000e+02 1.570065589296838660e+01
6.510000000000000000e+02 2.213090814146442042e+01
6.520000000000000000e+02 8.422606580792008302e+00
6.530000000000000000e+02 4.752501011823599519e+00
6.540000000000000000e+02 2.567567041692594287e+01
6.550000000000000000e+02 1.480620307405077085e+01
6.560000000000000000e+02 2.716768900435579059e+00
6.570000000000000000e+02 2.043478693217172903e+00
6.580000000000000000e+02 2.914689286870012808e+01
6.590000000000000000e+02 4.767236687616673407e+01
6.600000000000000000e+02 4.014567211159502591e+01
6.610000000000000000e+02 7.547754103920338764e+01
6.620000000000000000e+02 6.645925593237925000e+01
6.630000000000000000e+02 8.575952667772685345e+01
6.640000000000000000e+02 9.955941969508400291e+01
6.650000000000000000e+02 1.006766849823687835e+02
6.660000000000000000e+02 1.107041999170466937e+02
6.670000000000000000e+02 1.338160915577681180e+02
6.680000000000000000e+02 1.489211385812071740e+02
6.690000000000000000e+02 1.464102428867689980e+02
6.700000000000000000e+02 1.617234772246420960e+02
6.710000000000000000e+02 1.818349383322961330e+02
6.720000000000000000e+02 1.921812774989629702e+02
6.730000000000000000e+02 2.299140982576226406e+02
6.740000000000000000e+02 2.723326301389747073e+02
6.750000000000000000e+02 2.767577159684778394e+02
6.760000000000000000e+02 2.981497169881763512e+02
6.770000000000000000e+02 3.292805240821404595e+02
6.780000000000000000e+02 3.495344477286867573e+02
6.790000000000000000e+02 3.876142397842773448e+02
6.800000000000000000e+02 3.980257303878865400e+02
6.810000000000000000e+02 4.311060890686575817e+02
6.820000000000000000e+02 4.634840192906032144e+02
6.830000000000000000e+02 4.752495388508608585e+02
6.840000000000000000e+02 4.885091721427085076e+02
6.850000000000000000e+02 5.282417582659192021e+02
6.860000000000000000e+02 5.361337296204109180e+02
6.870000000000000000e+02 4.977824726197892460e+02
6.880000000000000000e+02 4.726257393486831120e+02
6.890000000000000000e+02 4.535722164488703925e+02
6.900000000000000000e+02 4.122366975938611517e+02
6.910000000000000000e+02 3.568701460485382313e+02
6.920000000000000000e+02 3.246246524263796687e+02
6.930000000000000000e+02 2.716458833022191470e+02
6.940000000000000000e+02 2.239400605890892564e+02
6.950000000000000000e+02 2.036947489838240415e+02
6.960000000000000000e+02 1.972581341008084053e+02
6.970000000000000000e+02 1.756432850238535366e+02
6.980000000000000000e+02 1.653781464122776015e+02
6.990000000000000000e+02 1.304413425015569885e+02
7.000000000000000000e+02 1.242910540759173728e+02
7.010000000000000000e+02 1.197068241028824218e+02
7.020000000000000000e+02 1.078121339348681715e+02
7.030000000000000000e+02 1.084047323376900493e+02
7.040000000000000000e+02 9.001075757934161459e+01
7.050000000000000000e+02 6.118188237660806550e+01
7.060000000000000000e+02 5.757907684712692031e+01
7.070000000000000000e+02 6.095229120514432708e+01
7.080000000000000000e+02 6.431971410203203732e+01
7.090000000000000000e+02 6.213244474797772909e+01
7.100000000000000000e+02 1.322117317817887105e+01
7.110000000000000000e+02 3.608414262546693152e+01
7.120000000000000000e+02 2.883527657539881517e+01
7.130000000000000000e+02 1.875531628500317183e+01
7.140000000000000000e+02 2.376112475736226770e+01
7.150000000000000000e+02 2.763754382285847200e+01
7.160000000000000000e+02 3.202671069487679034e+01
7.170000000000000000e+02 4.004814297033822612e+01
7.180000000000000000e+02 3.290409708774052433e+01
7.190000000000000000e+02 1.829635180253020366e+01
7.200000000000000000e+02 2.788704842563677744e+01
7.210000000000000000e+02 4.916764865173241361e+01
7.220000000000000000e+02 3.286912739265766703e+01
7.230000000000000000e+02 2.369243867454880359e+01
7.240000000000000000e+02 4.891687908525173611e+01
7.250000000000000000e+02 6.578727269446164883e+01
7.260000000000000000e+02 6.800293192491182026e+01
7.270000000000000000e+02 6.940377994399507600e+01
7.280000000000000000e+02 7.210738393071974883e+01
7.290000000000000000e+02 6.393337229205534555e+01
7.300000000000000000e+02 7.017486176104580409e+01
7.310000000000000000e+02 8.386133385317320688e+01
7.320000000000000000e+02 8.530848291848138842e+01
7.330000000000000000e+02 8.394846751711290267e+01
7.340000000000000000e+02 9.599712894234802718e+01
7.350000000000000000e+02 1.121594203484757344e+02
7.360000000000000000e+02 1.132440391412568204e+02
7.370000000000000000e+02 1.006398040564078400e+02
7.380000000000000000e+02 1.146554319228371384e+02
7.390000000000000000e+02 1.255038002489111619e+02
7.400000000000000000e+02 1.176906641642470248e+02
7.410000000000000000e+02 1.194781730553827401e+02
7.420000000000000000e+02 1.387919113669364037e+02
7.430000000000000000e+02 1.559915817917880645e+02
7.440000000000000000e+02 1.596888867247458847e+02
7.450000000000000000e+02 1.595151517734909703e+02
7.460000000000000000e+02 1.593052176726820051e+02
7.470000000000000000e+02 1.599805260319436400e+02
7.480000000000000000e+02 1.628265618958722314e+02
7.490000000000000000e+02 1.591786362787801465e+02
7.500000000000000000e+02 1.461659122588673085e+02
7.510000000000000000e+02 1.513453935283137071e+02
7.520000000000000000e+02 1.851243598008701952e+02
7.530000000000000000e+02 1.974440863721216886e+02
7.540000000000000000e+02 1.509290492843808238e+02
7.550000000000000000e+02 1.510720329184816535e+02
7.560000000000000000e+02 1.654834916407384071e+02
7.570000000000000000e+02 1.662338892160929049e+02
7.580000000000000000e+02 1.744383913295998241e+02
7.590000000000000000e+02 1.781344584940883067e+02
7.600000000000000000e+02 1.547865280796350476e+02
7.610000000000000000e+02 1.359492759386019145e+02
7.620000000000000000e+02 1.354002937357394671e+02
7.630000000000000000e+02 1.390880180008295213e+02
7.640000000000000000e+02 1.346376785314249958e+02
7.650000000000000000e+02 1.266985983198507029e+02
7.660000000000000000e+02 1.272655240149315716e+02
7.670000000000000000e+02 1.340154102260941613e+02
7.680000000000000000e+02 1.180299502800250337e+02
7.690000000000000000e+02 1.216271324139361525e+02
7.700000000000000000e+02 1.114973132130264162e+02
7.710000000000000000e+02 9.373007609417143726e+01
7.720000000000000000e+02 9.207328416303674601e+01
7.730000000000000000e+02 1.015161585563162419e+02
7.740000000000000000e+02 8.588926840696933596e+01
7.750000000000000000e+02 7.520251493258662379e+01
7.760000000000000000e+02 6.450425527691363925e+01
7.770000000000000000e+02 5.276998363410105952e+01
7.780000000000000000e+02 5.288972774113248221e+01
7.790000000000000000e+02 6.021121518979457932e+01
7.800000000000000000e+02 4.784549572287985342e+01
7.810000000000000000e+02 7.264560385397505371e+00
7.820000000000000000e+02 4.277766617299235463e+01
7.830000000000000000e+02 2.819232996266451252e+01
7.840000000000000000e+02 3.134439898775500666e+00
7.850000000000000000e+02 9.156813752800303519e+00
7.860000000000000000e+02 1.516352027380245548e+00
7.870000000000000000e+02 4.534235392449634361e+00
7.880000000000000000e+02 8.141198676275362089e+00
7.890000000000000000e+02 1.372537147064927865e+01
7.900000000000000000e+02 1.954609409458620917e+01
7.910000000000000000e+02 1.957257754458721166e+01
7.920000000000000000e+02 2.453854466915619525e+01
7.930000000000000000e+02 2.932341030076714006e+01
7.940000000000000000e+02 1.560019779137288687e+01
7.950000000000000000e+02 4.145763983198388303e+01
7.960000000000000000e+02 2.344048964944899893e+01
7.970000000000000000e+02 2.932680163002803653e+01
7.980000000000000000e+02 4.941114757104276833e+01
7.990000000000000000e+02 5.600076833851939995e+01
8.000000000000000000e+02 4.918291664592409518e+01
8.010000000000000000e+02 5.042578709811232329e+01
8.020000000000000000e+02 5.267424254718953591e+01
8.030000000000000000e+02 3.436041767060775243e+01
8.040000000000000000e+02 3.275028958929681977e+01
8.050000000000000000e+02 3.993883168637211156e+01
8.060000000000000000e+02 2.452019937149890438e+01
8.070000000000000000e+02 5.016424283551370600e+00
8.080000000000000000e+02 8.652541180187079961e-01
8.090000000000000000e+02 3.019874180460647750e+01
8.100000000000000000e+02 6.637994500311283730e+01
8.110000000000000000e+02 8.679702731439286367e+01
8.120000000000000000e+02 1.029041049989619268e+02
8.130000000000000000e+02 1.152487121966394312e+02
8.140000000000000000e+02 1.118081487865587604e+02
8.150000000000000000e+02 1.215018867040024588e+02
8.160000000000000000e+02 1.589064765816212343e+02
8.170000000000000000e+02 1.627412964737606558e+02
8.180000000000000000e+02 1.796092841319226068e+02
8.190000000000000000e+02 2.219065264260523236e+02
8.200000000000000000e+02 2.708592158058502264e+02
8.210000000000000000e+02 3.233594540759187339e+02
8.220000000000000000e+02 3.820167723086503884e+02
8.230000000000000000e+02 4.330775408214082063e+02
8.240000000000000000e+02 5.016709346401188441e+02
8.250000000000000000e+02 5.608763934259654889e+02
8.260000000000000000e+02 5.928262857291025512e+02
8.270000000000000000e+02 6.091810815183580416e+02
8.280000000000000000e+02 6.253327190377435727e+02
8.290000000000000000e+02 6.172236075088160305e+02
8.300000000000000000e+02 6.036055763119677522e+02
8.310000000000000000e+02 5.628501730402305157e+02
8.320000000000000000e+02 5.093714457996272813e+02
8.330000000000000000e+02 4.615373530387891492e+02
8.340000000000000000e+02 4.015897467440892683e+02
8.350000000000000000e+02 3.208786492843802307e+02
8.360000000000000000e+02 2.882912243310514668e+02
8.370000000000000000e+02 2.837418649730401512e+02
8.380000000000000000e+02 2.424536225886731984e+02
8.390000000000000000e+02 2.018160618129014665e+02
8.400000000000000000e+02 1.872519616884463574e+02
8.410000000000000000e+02 1.886396318606099669e+02
8.420000000000000000e+02 1.956074985895044165e+02
8.430000000000000000e+02 2.080594554864140093e+02
8.440000000000000000e+02 2.203674333955612781e+02
8.450000000000000000e+02 2.237524350964530697e+02
8.460000000000000000e+02 2.542747724331042889e+02
8.470000000000000000e+02 3.061103392864540638e+02
8.480000000000000000e+02 3.483933196639703169e+02
8.490000000000000000e+02 3.793517038788634181e+02
8.500000000000000000e+02 4.315188057871811793e+02
8.510000000000000000e+02 4.947872310101639073e+02
8.520000000000000000e+02 5.923776376477926533e+02
8.530000000000000000e+02 6.758159829910813414e+02
8.540000000000000000e+02 7.620200167150563857e+02
8.550000000000000000e+02 8.658484520846312762e+02
8.560000000000000000e+02 9.865190845052900386e+02
8.570000000000000000e+02 1.127084917046869350e+03
8.580000000000000000e+02 1.241718993154948066e+03
8.590000000000000000e+02 1.324657380211574491e+03
8.600000000000000000e+02 1.428920168187474928e+03
8.610000000000000000e+02 1.565768750674134935e+03
8.620000000000000000e+02 1.696147055590126001e+03
8.630000000000000000e+02 1.800907182496890073e+03
8.640000000000000000e+02 1.907670221530802337e+03
8.650000000000000000e+02 2.022895937979671999e+03
8.660000000000000000e+02 2.071700514208670029e+03
8.670000000000000000e+02 2.118240771624144145e+03
8.680000000000000000e+02 2.207024345986309072e+03
8.690000000000000000e+02 2.238473868077161569e+03
8.700000000000000000e+02 2.213406604231488018e+03
8.710000000000000000e+02 2.272225132130262409e+03
8.720000000000000000e+02 2.337620194150590123e+03
8.730000000000000000e+02 2.367492440987347891e+03
8.740000000000000000e+02 2.406512998962869915e+03
8.750000000000000000e+02 2.511901225886741486e+03
8.760000000000000000e+02 2.604606701929058090e+03
8.770000000000000000e+02 2.688035545115119021e+03
8.780000000000000000e+02 2.811076245799622939e+03
8.790000000000000000e+02 2.906817219411028873e+03
8.800000000000000000e+02 3.023735701306781266e+03
8.810000000000000000e+02 3.126061745488486849e+03
8.820000000000000000e+02 3.190846919535462348e+03
8.830000000000000000e+02 3.270619822443477005e+03
8.840000000000000000e+02 3.294091341630366514e+03
8.850000000000000000e+02 3.213750134798841827e+03
8.860000000000000000e+02 3.120928559427501114e+03
8.870000000000000000e+02 2.999959906658365981e+03
8.880000000000000000e+02 2.859927457901290836e+03
8.890000000000000000e+02 2.724203529350762437e+03
8.900000000000000000e+02 2.635943562538895549e+03
8.910000000000000000e+02 2.598691287639984239e+03
8.920000000000000000e+02 2.596727634100808245e+03
8.930000000000000000e+02 2.641629500311133597e+03
8.940000000000000000e+02 2.769300849408833983e+03
8.950000000000000000e+02 2.901711469819536433e+03
8.960000000000000000e+02 3.122083401576431243e+03
8.970000000000000000e+02 3.398491075917860599e+03
8.980000000000000000e+02 3.749422665214686731e+03
8.990000000000000000e+02 4.110799651524580440e+03
9.000000000000000000e+02 4.483049409458629270e+03
9.010000000000000000e+02 4.961532157436227862e+03
9.020000000000000000e+02 5.482946934038594009e+03
9.030000000000000000e+02 6.075860483924525397e+03
9.040000000000000000e+02 6.613115194772892210e+03
9.050000000000000000e+02 7.252116491599284018e+03
9.060000000000000000e+02 7.913285135241621902e+03
9.070000000000000000e+02 8.522395572495304805e+03
9.080000000000000000e+02 9.120010629614296704e+03
9.090000000000000000e+02 9.700876260734276002e+03
9.100000000000000000e+02 1.011152034847540926e+04
9.110000000000000000e+02 1.053884745748651403e+04
9.120000000000000000e+02 1.075890662518149838e+04
9.130000000000000000e+02 1.077918054760423183e+04
9.140000000000000000e+02 1.064155051845707021e+04
9.150000000000000000e+02 1.025872465671021746e+04
9.160000000000000000e+02 9.585907015556926126e+03
9.170000000000000000e+02 8.748998770634558241e+03
9.180000000000000000e+02 7.793997899813278309e+03
9.190000000000000000e+02 6.841231376270452529e+03
9.200000000000000000e+02 5.972421030491557758e+03
9.210000000000000000e+02 5.132077544492811285e+03
9.220000000000000000e+02 4.388891397013048845e+03
9.230000000000000000e+02 3.755172313627898347e+03
9.240000000000000000e+02 3.140605626011216827e+03
9.250000000000000000e+02 2.676926159717888822e+03
9.260000000000000000e+02 2.217522043144580039e+03
9.270000000000000000e+02 1.818089376477912765e+03
9.280000000000000000e+02 1.531618766438500870e+03
9.290000000000000000e+02 1.283658272350131710e+03
9.300000000000000000e+02 1.039926529143328708e+03
9.310000000000000000e+02 8.275361793403837964e+02
9.320000000000000000e+02 6.539922619788369502e+02
9.330000000000000000e+02 5.088061985480161979e+02
9.340000000000000000e+02 3.983546289091642052e+02
9.350000000000000000e+02 2.768023514208634879e+02
9.360000000000000000e+02 1.715072988798987126e+02
9.370000000000000000e+02 1.173737130236411161e+02
9.380000000000000000e+02 7.357273583696135688e+01
9.390000000000000000e+02 1.225828691350273836e+01
9.400000000000000000e+02 2.910572519701423744e+01
9.410000000000000000e+02 4.169550943372735219e+01
9.420000000000000000e+02 4.337343088155989079e+01
9.430000000000000000e+02 6.714830232890987816e+01
9.440000000000000000e+02 9.288896522505716291e+01
9.450000000000000000e+02 8.114307057871798179e+01
9.460000000000000000e+02 4.901345618543810190e+01
9.470000000000000000e+02 3.281376608587435584e+01
9.480000000000000000e+02 2.439769631196823596e+01
9.490000000000000000e+02 3.238494353453612007e+01
9.500000000000000000e+02 8.575122634591427584e+01
9.510000000000000000e+02 1.235480678904791745e+02
9.520000000000000000e+02 1.456953424600703499e+02
9.530000000000000000e+02 1.833852212567396691e+02
9.540000000000000000e+02 2.380489116988175056e+02
9.550000000000000000e+02 2.831740423356145584e+02
9.560000000000000000e+02 3.150580970551637847e+02
9.570000000000000000e+02 3.364901447832398276e+02
9.580000000000000000e+02 3.610683948973238557e+02
9.590000000000000000e+02 3.527603537536292038e+02
9.600000000000000000e+02 3.405528738436009348e+02
9.610000000000000000e+02 3.332942883634100895e+02
9.620000000000000000e+02 3.503055106824307927e+02
9.630000000000000000e+02 3.921612441194779990e+02
9.640000000000000000e+02 4.219237263430825351e+02
9.650000000000000000e+02 4.495539271312998721e+02
9.660000000000000000e+02 5.535880971582638495e+02
9.670000000000000000e+02 6.485991237087714580e+02
9.680000000000000000e+02 7.590444396390773818e+02
9.690000000000000000e+02 9.093255233561461637e+02
9.700000000000000000e+02 1.065062303878858529e+03
9.710000000000000000e+02 1.233583612943369417e+03
9.720000000000000000e+02 1.444542238954568120e+03
9.730000000000000000e+02 1.651746104935704579e+03
9.740000000000000000e+02 1.858217311968469630e+03
9.750000000000000000e+02 2.035620404272970518e+03
9.760000000000000000e+02 2.271003488593943530e+03
9.770000000000000000e+02 2.402198072806472283e+03
9.780000000000000000e+02 2.434902196017423648e+03
9.790000000000000000e+02 2.408969481957696189e+03
9.800000000000000000e+02 2.280574031943585396e+03
9.810000000000000000e+02 2.058206862476656170e+03
9.820000000000000000e+02 1.787824498755711602e+03
9.830000000000000000e+02 1.512788099979266462e+03
9.840000000000000000e+02 1.260544838830128811e+03
9.850000000000000000e+02 1.008574331397767764e+03
9.860000000000000000e+02 8.136705944617357318e+02
9.870000000000000000e+02 6.497071255548706858e+02
9.880000000000000000e+02 4.985446925948988337e+02
9.890000000000000000e+02 4.026368892760850713e+02
9.900000000000000000e+02 3.251713490976987941e+02
9.910000000000000000e+02 2.604147230864962239e+02
9.920000000000000000e+02 2.229401878033600610e+02
9.930000000000000000e+02 1.760744108898566367e+02
9.940000000000000000e+02 1.304500526654209409e+02
9.950000000000000000e+02 7.852243871188380808e+01
9.960000000000000000e+02 5.060002865588079857e+01
9.970000000000000000e+02 4.474731851483224432e+01
9.980000000000000000e+02 7.883352086288896388e+00
9.990000000000000000e+02 1.162873250777862921e+01
1.000000000000000000e+03 3.135697427623336608e+01
1.001000000000000000e+03 4.179881172199133488e+01
1.002000000000000000e+03 5.264633246887976981e+01
1.003000000000000000e+03 5.017389935817841717e+01
1.004000000000000000e+03 5.266336709543580952e+01
1.005000000000000000e+03 6.497746477178424129e+01
1.006000000000000000e+03 6.482614713692943553e+01
1.007000000000000000e+03 6.332586596273272050e+01
1.008000000000000000e+03 3.028785344398432855e+01
1.009000000000000000e+03 1.610924506224026231e+01
1.010000000000000000e+03 1.898302819501967420e+01
1.011000000000000000e+03 3.743728026970981659e+01
1.012000000000000000e+03 6.617835601659780309e+01
1.013000000000000000e+03 9.634256846472976576e+01
1.014000000000000000e+03 1.197243269709551328e+02
1.015000000000000000e+03 1.696350979296056778e+02
1.016000000000000000e+03 1.908374016597512934e+02
1.017000000000000000e+03 2.056476161825724489e+02
1.018000000000000000e+03 2.272689906639006665e+02
1.019000000000000000e+03 2.753975952282156641e+02
1.020000000000000000e+03 3.047025697095431269e+02
1.021000000000000000e+03 3.415467265560181431e+02
1.022000000000000000e+03 3.875751228215759738e+02
1.023000000000000000e+03 4.236101829875534008e+02
1.024000000000000000e+03 4.750393726708075519e+02
1.025000000000000000e+03 5.349957692946102270e+02
1.026000000000000000e+03 6.235503269709452070e+02
1.027000000000000000e+03 7.511379937759286349e+02
1.028000000000000000e+03 8.695133832298164407e+02
1.029000000000000000e+03 1.013235360995860333e+03
1.030000000000000000e+03 1.168733431535260252e+03
1.031000000000000000e+03 1.319759717842323198e+03
1.032000000000000000e+03 1.475120312629409909e+03
1.033000000000000000e+03 1.640542244813262187e+03
1.034000000000000000e+03 1.831238860995845926e+03
1.035000000000000000e+03 2.011374856846479133e+03
1.036000000000000000e+03 2.179768014492746261e+03
1.037000000000000000e+03 2.277665423236510833e+03
1.038000000000000000e+03 2.382582680497926958e+03
1.039000000000000000e+03 2.446783481327803202e+03
1.040000000000000000e+03 2.416036498964811472e+03
1.041000000000000000e+03 2.344981170124481650e+03
1.042000000000000000e+03 2.278960997925304127e+03
1.043000000000000000e+03 2.125354491701235020e+03
1.044000000000000000e+03 1.964555149377601538e+03
1.045000000000000000e+03 1.829470236514519229e+03
1.046000000000000000e+03 1.688012580912851490e+03
1.047000000000000000e+03 1.592729319502079761e+03
1.048000000000000000e+03 1.517860087136931043e+03
1.049000000000000000e+03 1.437948155601654435e+03
1.050000000000000000e+03 1.396945912863070589e+03
1.051000000000000000e+03 1.408233676348547533e+03
1.052000000000000000e+03 1.406221514522821735e+03
1.053000000000000000e+03 1.470214724637688505e+03
1.054000000000000000e+03 1.519706373443977782e+03
1.055000000000000000e+03 1.624072672199169801e+03
1.056000000000000000e+03 1.716567576763490024e+03
1.057000000000000000e+03 1.797458987577644848e+03
1.058000000000000000e+03 1.888922470954354367e+03
1.059000000000000000e+03 1.946181462655601536e+03
1.060000000000000000e+03 1.926970265560163170e+03
1.061000000000000000e+03 1.880944217391308257e+03
1.062000000000000000e+03 1.793131186721990616e+03
1.063000000000000000e+03 1.663233991701235482e+03
1.064000000000000000e+03 1.564121697095439913e+03
1.065000000000000000e+03 1.444451987577641603e+03
1.066000000000000000e+03 1.393074821576762815e+03
1.067000000000000000e+03 1.402354680497928030e+03
1.068000000000000000e+03 1.421641047717841047e+03
1.069000000000000000e+03 1.469969536231884831e+03
1.070000000000000000e+03 1.604547639004164694e+03
1.071000000000000000e+03 1.788758697095420530e+03
1.072000000000000000e+03 1.986017373443979068e+03
1.073000000000000000e+03 2.233016867219928372e+03
1.074000000000000000e+03 2.550291612033196543e+03
1.075000000000000000e+03 2.880862614107869831e+03
1.076000000000000000e+03 3.208771946058097001e+03
1.077000000000000000e+03 3.605168155601694707e+03
1.078000000000000000e+03 4.071678434782576460e+03
1.079000000000000000e+03 4.537547074688794055e+03
1.080000000000000000e+03 5.009632734439861451e+03
1.081000000000000000e+03 5.583742041493720535e+03
1.082000000000000000e+03 6.033717711618247449e+03
1.083000000000000000e+03 6.322965101659755419e+03
1.084000000000000000e+03 6.333000674273853292e+03
1.085000000000000000e+03 6.006604707468915876e+03
1.086000000000000000e+03 5.407415681159423002e+03
1.087000000000000000e+03 4.639617070539361521e+03
1.088000000000000000e+03 3.808478975103816083e+03
1.089000000000000000e+03 3.033035195020771425e+03
1.090000000000000000e+03 2.419115887966790524e+03
1.091000000000000000e+03 1.878167331950243124e+03
1.092000000000000000e+03 1.456303935684669568e+03
1.093000000000000000e+03 1.153133742738588580e+03
1.094000000000000000e+03 9.060240695652058776e+02
1.095000000000000000e+03 7.514350074688892391e+02
1.096000000000000000e+03 6.247258663900441888e+02
1.097000000000000000e+03 5.095901091286272617e+02
1.098000000000000000e+03 4.307987521739105432e+02
1.099000000000000000e+03 3.674977290456455421e+02
1.100000000000000000e+03 3.157184161825717297e+02
1.101000000000000000e+03 2.692062273858895196e+02
1.102000000000000000e+03 2.456351923236540813e+02
1.103000000000000000e+03 1.948716161825729216e+02
1.104000000000000000e+03 1.816142655601661318e+02
1.105000000000000000e+03 1.692144058091303123e+02
1.106000000000000000e+03 1.384474419087155184e+02
1.107000000000000000e+03 1.066264782608686374e+02
1.108000000000000000e+03 9.264099751037373665e+01
1.109000000000000000e+03 9.585124890041493018e+01
1.110000000000000000e+03 9.428023626556023373e+01
1.111000000000000000e+03 8.739575473028962449e+01
1.112000000000000000e+03 7.570492556016627361e+01
1.113000000000000000e+03 7.814995601659749980e+01
1.114000000000000000e+03 6.211396597510320561e+01
1.115000000000000000e+03 4.674689142857170765e+01
1.116000000000000000e+03 5.291343010373338984e+01
1.117000000000000000e+03 4.240083794605806133e+01
1.118000000000000000e+03 2.964591278008389352e+01
1.119000000000000000e+03 4.211917734439835925e+01
1.120000000000000000e+03 2.948447506224075099e+01
1.121000000000000000e+03 4.394328414937758254e+01
1.122000000000000000e+03 4.052315601659710609e+01
1.123000000000000000e+03 3.574971099378910111e+01
1.124000000000000000e+03 3.132902854771779388e+01
1.125000000000000000e+03 2.960792707468873886e+01
1.126000000000000000e+03 2.866696688796702119e+01
1.127000000000000000e+03 1.728645807453452932e+01
1.128000000000000000e+03 8.878911858921608058e+00
1.129000000000000000e+03 1.309569107883820926e+01
1.130000000000000000e+03 1.406542066390005452e+01
1.131000000000000000e+03 2.039871360995849514e+01
1.132000000000000000e+03 8.929729253110993525e+00
1.133000000000000000e+03 1.195990020746864246e+01
1.134000000000000000e+03 1.686370404006414248e-01
1.135000000000000000e+03 2.306553902489839825e+00
1.136000000000000000e+03 4.159980207468977120e+00
1.137000000000000000e+03 7.061073780082862683e+00
1.138000000000000000e+03 4.205996531120615778e+00
1.139000000000000000e+03 9.502165394189850289e+00
1.140000000000000000e+03 9.849907576762044314e+00
1.141000000000000000e+03 2.186273500000000070e+01
1.142000000000000000e+03 2.031880188796911568e+00
1.143000000000000000e+03 1.408388620331921182e+01
1.144000000000000000e+03 7.326510320911260976e+00
1.145000000000000000e+03 1.122165978008333198e+01
1.146000000000000000e+03 1.458181763485485050e+01
1.147000000000000000e+03 1.397945381742743365e+01
1.148000000000000000e+03 3.916181809523865631e+00
1.149000000000000000e+03 8.536821242740661120e+00
1.150000000000000000e+03 2.179105064315480433e+01
1.151000000000000000e+03 6.491674576763954541e+00
1.152000000000000000e+03 7.039615565217461679e+00
1.153000000000000000e+03 5.127380601659634607e+00
1.154000000000000000e+03 7.979887136930586822e-01
1.155000000000000000e+03 1.169322560165985569e+00
1.156000000000000000e+03 4.644635016597461252e+00
1.157000000000000000e+03 1.213651098755006075e+01
1.158000000000000000e+03 1.033683470954384021e+01
1.159000000000000000e+03 9.148869051868119939e+00
1.160000000000000000e+03 5.553882678420807295e+00
1.161000000000000000e+03 2.815539804979385163e+00
1.162000000000000000e+03 2.544238825726107223e+01
1.163000000000000000e+03 1.018296606638935486e+01
1.164000000000000000e+03 3.721697456431281470e+00
1.165000000000000000e+03 8.959877738589224094e+00
1.166000000000000000e+03 1.520091856846553924e+01
1.167000000000000000e+03 1.190495624896236571e+01
1.168000000000000000e+03 2.441485531120534347e+00
1.169000000000000000e+03 9.184301577640104242e+00
1.170000000000000000e+03 1.636582286307072565e+01
1.171000000000000000e+03 1.411863174273898025e+01
1.172000000000000000e+03 2.215542273858900302e+01
1.173000000000000000e+03 3.477283666666647832e+01
1.174000000000000000e+03 2.468334244813308231e+01
1.175000000000000000e+03 4.026904618257250945e+01
1.176000000000000000e+03 3.951225217842285531e+01
1.177000000000000000e+03 2.571900347826059274e+01
1.178000000000000000e+03 2.518736082987549452e+01
1.179000000000000000e+03 2.181267174273857989e+01
1.180000000000000000e+03 2.492903012448179112e+01
1.181000000000000000e+03 3.086687439834030755e+01
1.182000000000000000e+03 1.792119827800876664e+01
1.183000000000000000e+03 1.883056100622556528e+01
1.184000000000000000e+03 4.024490087136998540e+01
1.185000000000000000e+03 4.373582840248904091e+01
1.186000000000000000e+03 4.942052033195014360e+01
1.187000000000000000e+03 3.210081514522698853e+01
1.188000000000000000e+03 3.228619161825702122e+01
1.189000000000000000e+03 3.759402664596253629e+01
1.190000000000000000e+03 4.570999462655617407e+01
1.191000000000000000e+03 4.345168697095427035e+01
1.192000000000000000e+03 5.143800217842279920e+01
1.193000000000000000e+03 4.703270941908689906e+01
1.194000000000000000e+03 3.197985091286226123e+01
1.195000000000000000e+03 4.495089946057779429e+01
1.196000000000000000e+03 6.277009381742756489e+01
1.197000000000000000e+03 4.269990489626483310e+01
1.198000000000000000e+03 3.306774658385134558e+01
1.199000000000000000e+03 2.413441804979265726e+01
1.200000000000000000e+03 3.644032678423259597e+01
1.201000000000000000e+03 1.912391943983225673e+01
1.202000000000000000e+03 2.309263431535202216e+01
1.203000000000000000e+03 3.438551058091288581e+01
1.204000000000000000e+03 3.211210896265515657e+01
1.205000000000000000e+03 2.873363759336092471e+01
1.206000000000000000e+03 2.955175683229811412e+01
1.207000000000000000e+03 2.674817807053911523e+01
1.208000000000000000e+03 2.635590614107878338e+01
1.209000000000000000e+03 3.691872356846428715e+01
1.210000000000000000e+03 3.760914136929462614e+01
1.211000000000000000e+03 2.495936165974952559e+01
1.212000000000000000e+03 4.476045933611301209e+00
1.213000000000000000e+03 1.061156318672176369e+01
1.214000000000000000e+03 8.289428999999881142e+00
1.215000000000000000e+03 3.308599628630356193e+01
1.216000000000000000e+03 2.878901408713784349e+01
1.217000000000000000e+03 1.220861944190862047e+01
1.218000000000000000e+03 1.035467795031076399e+01
1.219000000000000000e+03 1.804162340248903362e+01
1.220000000000000000e+03 2.876419983402473335e+01
1.221000000000000000e+03 3.392986460580853247e+01
1.222000000000000000e+03 2.071417464730298974e+01
1.223000000000000000e+03 1.509863614107861629e+01
1.224000000000000000e+03 2.875652968879701632e+01
1.225000000000000000e+03 3.167750769709492076e+01
1.226000000000000000e+03 3.912030740665120021e+00
1.227000000000000000e+03 2.461074147412012181e+01
1.228000000000000000e+03 2.889140941908657823e+01
1.229000000000000000e+03 2.707590780082967541e+01
1.230000000000000000e+03 2.650244365145245595e+01
1.231000000000000000e+03 2.144401829875497967e+01
1.232000000000000000e+03 2.489514263485538947e+01
1.233000000000000000e+03 2.692096595435819850e+01
1.234000000000000000e+03 1.301045327800830087e+01
1.235000000000000000e+03 1.345164093167691632e+01
1.236000000000000000e+03 1.511074037344306653e+01
1.237000000000000000e+03 2.793439605809104975e+01
1.238000000000000000e+03 2.529196904564302884e+01
1.239000000000000000e+03 2.628911834024894389e+01
1.240000000000000000e+03 1.217347626556108331e+01
1.241000000000000000e+03 1.492769668049803045e+01
1.242000000000000000e+03 1.796019663900406371e+01
1.243000000000000000e+03 7.000410792531997828e+00
1.244000000000000000e+03 9.558477912862832326e+00
1.245000000000000000e+03 2.114822439834021850e+01
1.246000000000000000e+03 1.967554228215754364e+01
1.247000000000000000e+03 1.998113871369260863e+01
1.248000000000000000e+03 2.201374045643139965e+01
1.249000000000000000e+03 1.228188517634734112e+01
1.250000000000000000e+03 2.325388060166042159e+00
1.251000000000000000e+03 1.645096902489611068e+01
1.252000000000000000e+03 6.277388970953413860e+00
1.253000000000000000e+03 2.736372199170942210e-01
1.254000000000000000e+03 8.179365020746415027e+00
1.255000000000000000e+03 1.080686643153525672e+01
1.256000000000000000e+03 1.195380869565236281e+01
1.257000000000000000e+03 1.619797703319474280e+01
1.258000000000000000e+03 1.683211771784235466e+01
1.259000000000000000e+03 9.101763271783587683e+00
1.260000000000000000e+03 3.666498496894610604e+00
1.261000000000000000e+03 8.960744991701142581e+00
1.262000000000000000e+03 1.896745128630784549e+01
1.263000000000000000e+03 3.568648431535223153e+01
1.264000000000000000e+03 1.367712184265103126e+01
1.265000000000000000e+03 1.479912665975110109e+01
1.266000000000000000e+03 1.945416800829877246e+01
1.267000000000000000e+03 2.113107829876822663e+00
1.268000000000000000e+03 3.261085873443818173e+00
1.269000000000000000e+03 6.256239709540674099e-01
1.270000000000000000e+03 4.999489410789320409e+00
1.271000000000000000e+03 8.052315356846881045e+00
1.272000000000000000e+03 3.112118867219916485e+00
1.273000000000000000e+03 8.551760728217011831e+00
1.274000000000000000e+03 2.202384352696992309e+01
1.275000000000000000e+03 2.411857935684676946e+01
1.276000000000000000e+03 9.430720927385360497e+00
1.277000000000000000e+03 4.718568128630683312e+00
1.278000000000000000e+03 8.229288439833984725e+00
1.279000000000000000e+03 9.919836182571568628e-01
1.280000000000000000e+03 1.121656883817645944e+00
1.281000000000000000e+03 6.373839807053606421e+00
1.282000000000000000e+03 3.649771470954394026e+00
1.283000000000000000e+03 0.000000000000000000e+00
1.284000000000000000e+03 0.000000000000000000e+00
1.285000000000000000e+03 0.000000000000000000e+00
1.286000000000000000e+03 0.000000000000000000e+00
1.287000000000000000e+03 0.000000000000000000e+00
1.288000000000000000e+03 0.000000000000000000e+00
1.289000000000000000e+03 0.000000000000000000e+00
1.290000000000000000e+03 0.000000000000000000e+00
1.291000000000000000e+03 0.000000000000000000e+00
1.292000000000000000e+03 0.000000000000000000e+00
1.293000000000000000e+03 0.000000000000000000e+00
1.294000000000000000e+03 0.000000000000000000e+00
1.295000000000000000e+03 0.000000000000000000e+00
1.296000000000000000e+03 0.000000000000000000e+00
1.297000000000000000e+03 0.000000000000000000e+00
1.298000000000000000e+03 0.000000000000000000e+00
1.299000000000000000e+03 0.000000000000000000e+00
1.300000000000000000e+03 0.000000000000000000e+00
1.301000000000000000e+03 0.000000000000000000e+00
1.302000000000000000e+03 0.000000000000000000e+00
1.303000000000000000e+03 0.000000000000000000e+00
1.304000000000000000e+03 0.000000000000000000e+00
1.305000000000000000e+03 0.000000000000000000e+00
1.306000000000000000e+03 0.000000000000000000e+00
1.307000000000000000e+03 0.000000000000000000e+00
1.308000000000000000e+03 0.000000000000000000e+00
1.309000000000000000e+03 0.000000000000000000e+00
1.310000000000000000e+03 0.000000000000000000e+00
1.311000000000000000e+03 0.000000000000000000e+00
1.312000000000000000e+03 0.000000000000000000e+00
1.313000000000000000e+03 0.000000000000000000e+00
1.314000000000000000e+03 0.000000000000000000e+00
1.315000000000000000e+03 0.000000000000000000e+00
1.316000000000000000e+03 0.000000000000000000e+00
1.317000000000000000e+03 0.000000000000000000e+00
1.318000000000000000e+03 0.000000000000000000e+00
1.319000000000000000e+03 0.000000000000000000e+00
1.320000000000000000e+03 0.000000000000000000e+00
1.321000000000000000e+03 0.000000000000000000e+00
1.322000000000000000e+03 0.000000000000000000e+00
1.323000000000000000e+03 0.000000000000000000e+00
1.324000000000000000e+03 0.000000000000000000e+00
1.325000000000000000e+03 0.000000000000000000e+00
1.326000000000000000e+03 0.000000000000000000e+00
1.327000000000000000e+03 0.000000000000000000e+00
1.328000000000000000e+03 0.000000000000000000e+00
1.329000000000000000e+03 0.000000000000000000e+00
1.330000000000000000e+03 0.000000000000000000e+00
1.331000000000000000e+03 0.000000000000000000e+00
1.332000000000000000e+03 0.000000000000000000e+00
1.333000000000000000e+03 0.000000000000000000e+00
1.334000000000000000e+03 0.000000000000000000e+00
1.335000000000000000e+03 0.000000000000000000e+00
1.336000000000000000e+03 0.000000000000000000e+00
1.337000000000000000e+03 0.000000000000000000e+00
1.338000000000000000e+03 0.000000000000000000e+00
1.339000000000000000e+03 0.000000000000000000e+00
1.340000000000000000e+03 0.000000000000000000e+00
1.341000000000000000e+03 0.000000000000000000e+00
1.342000000000000000e+03 0.000000000000000000e+00
1.343000000000000000e+03 0.000000000000000000e+00
1.344000000000000000e+03 0.000000000000000000e+00
1.345000000000000000e+03 0.000000000000000000e+00
1.346000000000000000e+03 0.000000000000000000e+00
1.347000000000000000e+03 0.000000000000000000e+00
1.348000000000000000e+03 0.000000000000000000e+00
1.349000000000000000e+03 0.000000000000000000e+00
1.350000000000000000e+03 0.000000000000000000e+00
1.351000000000000000e+03 0.000000000000000000e+00
1.352000000000000000e+03 0.000000000000000000e+00
1.353000000000000000e+03 0.000000000000000000e+00
1.354000000000000000e+03 0.000000000000000000e+00
1.355000000000000000e+03 0.000000000000000000e+00
1.356000000000000000e+03 0.000000000000000000e+00
1.357000000000000000e+03 0.000000000000000000e+00
1.358000000000000000e+03 0.000000000000000000e+00
1.359000000000000000e+03 0.000000000000000000e+00
1.360000000000000000e+03 0.000000000000000000e+00
1.361000000000000000e+03 0.000000000000000000e+00
1.362000000000000000e+03 0.000000000000000000e+00
1.363000000000000000e+03 0.000000000000000000e+00
1.364000000000000000e+03 0.000000000000000000e+00
1.365000000000000000e+03 0.000000000000000000e+00
1.366000000000000000e+03 0.000000000000000000e+00
1.367000000000000000e+03 0.000000000000000000e+00
1.368000000000000000e+03 0.000000000000000000e+00
1.369000000000000000e+03 0.000000000000000000e+00
1.370000000000000000e+03 0.000000000000000000e+00
1.371000000000000000e+03 0.000000000000000000e+00
1.372000000000000000e+03 0.000000000000000000e+00
1.373000000000000000e+03 0.000000000000000000e+00
1.374000000000000000e+03 0.000000000000000000e+00
1.375000000000000000e+03 0.000000000000000000e+00
1.376000000000000000e+03 0.000000000000000000e+00
1.377000000000000000e+03 0.000000000000000000e+00
1.378000000000000000e+03 0.000000000000000000e+00
1.379000000000000000e+03 0.000000000000000000e+00
1.380000000000000000e+03 0.000000000000000000e+00
1.381000000000000000e+03 0.000000000000000000e+00
1.382000000000000000e+03 0.000000000000000000e+00
1.383000000000000000e+03 0.000000000000000000e+00
1.384000000000000000e+03 0.000000000000000000e+00
1.385000000000000000e+03 0.000000000000000000e+00
1.386000000000000000e+03 0.000000000000000000e+00
1.387000000000000000e+03 0.000000000000000000e+00
1.388000000000000000e+03 0.000000000000000000e+00
1.389000000000000000e+03 0.000000000000000000e+00
1.390000000000000000e+03 0.000000000000000000e+00
1.391000000000000000e+03 0.000000000000000000e+00
1.392000000000000000e+03 0.000000000000000000e+00
1.393000000000000000e+03 0.000000000000000000e+00
1.394000000000000000e+03 0.000000000000000000e+00
1.395000000000000000e+03 0.000000000000000000e+00
1.396000000000000000e+03 0.000000000000000000e+00
1.397000000000000000e+03 0.000000000000000000e+00
1.398000000000000000e+03 0.000000000000000000e+00
1.399000000000000000e+03 0.000000000000000000e+00
1.400000000000000000e+03 0.000000000000000000e+00
1.401000000000000000e+03 0.000000000000000000e+00
1.402000000000000000e+03 0.000000000000000000e+00
1.403000000000000000e+03 0.000000000000000000e+00
1.404000000000000000e+03 0.000000000000000000e+00
1.405000000000000000e+03 0.000000000000000000e+00
1.406000000000000000e+03 0.000000000000000000e+00
1.407000000000000000e+03 0.000000000000000000e+00
1.408000000000000000e+03 0.000000000000000000e+00
1.409000000000000000e+03 0.000000000000000000e+00
1.410000000000000000e+03 0.000000000000000000e+00
1.411000000000000000e+03 0.000000000000000000e+00
1.412000000000000000e+03 0.000000000000000000e+00
1.413000000000000000e+03 0.000000000000000000e+00
1.414000000000000000e+03 0.000000000000000000e+00
1.415000000000000000e+03 0.000000000000000000e+00
1.416000000000000000e+03 0.000000000000000000e+00
1.417000000000000000e+03 0.000000000000000000e+00
1.418000000000000000e+03 0.000000000000000000e+00
1.419000000000000000e+03 0.000000000000000000e+00
1.420000000000000000e+03 0.000000000000000000e+00
1.421000000000000000e+03 0.000000000000000000e+00
1.422000000000000000e+03 0.000000000000000000e+00
1.423000000000000000e+03 0.000000000000000000e+00
1.424000000000000000e+03 0.000000000000000000e+00
1.425000000000000000e+03 0.000000000000000000e+00
1.426000000000000000e+03 0.000000000000000000e+00
1.427000000000000000e+03 0.000000000000000000e+00
1.428000000000000000e+03 0.000000000000000000e+00
1.429000000000000000e+03 0.000000000000000000e+00
1.430000000000000000e+03 0.000000000000000000e+00
1.431000000000000000e+03 0.000000000000000000e+00
1.432000000000000000e+03 0.000000000000000000e+00
1.433000000000000000e+03 0.000000000000000000e+00
1.434000000000000000e+03 0.000000000000000000e+00
1.435000000000000000e+03 0.000000000000000000e+00
1.436000000000000000e+03 0.000000000000000000e+00
1.437000000000000000e+03 0.000000000000000000e+00
1.438000000000000000e+03 0.000000000000000000e+00
1.439000000000000000e+03 0.000000000000000000e+00
1.440000000000000000e+03 0.000000000000000000e+00
1.441000000000000000e+03 0.000000000000000000e+00
1.442000000000000000e+03 0.000000000000000000e+00
1.443000000000000000e+03 0.000000000000000000e+00
1.444000000000000000e+03 0.000000000000000000e+00
1.445000000000000000e+03 0.000000000000000000e+00
1.446000000000000000e+03 0.000000000000000000e+00
1.447000000000000000e+03 0.000000000000000000e+00
1.448000000000000000e+03 0.000000000000000000e+00
1.449000000000000000e+03 0.000000000000000000e+00
1.450000000000000000e+03 0.000000000000000000e+00
1.451000000000000000e+03 0.000000000000000000e+00
1.452000000000000000e+03 0.000000000000000000e+00
1.453000000000000000e+03 0.000000000000000000e+00
1.454000000000000000e+03 0.000000000000000000e+00
1.455000000000000000e+03 0.000000000000000000e+00
1.456000000000000000e+03 0.000000000000000000e+00
1.457000000000000000e+03 0.000000000000000000e+00
1.458000000000000000e+03 0.000000000000000000e+00
1.459000000000000000e+03 0.000000000000000000e+00
1.460000000000000000e+03 0.000000000000000000e+00
1.461000000000000000e+03 0.000000000000000000e+00
1.462000000000000000e+03 0.000000000000000000e+00
1.463000000000000000e+03 0.000000000000000000e+00
1.464000000000000000e+03 0.000000000000000000e+00
1.465000000000000000e+03 0.000000000000000000e+00
1.466000000000000000e+03 0.000000000000000000e+00
1.467000000000000000e+03 0.000000000000000000e+00
1.468000000000000000e+03 0.000000000000000000e+00
1.469000000000000000e+03 0.000000000000000000e+00
1.470000000000000000e+03 0.000000000000000000e+00
1.471000000000000000e+03 0.000000000000000000e+00
1.472000000000000000e+03 0.000000000000000000e+00
1.473000000000000000e+03 0.000000000000000000e+00
1.474000000000000000e+03 0.000000000000000000e+00
1.475000000000000000e+03 0.000000000000000000e+00
1.476000000000000000e+03 0.000000000000000000e+00
1.477000000000000000e+03 0.000000000000000000e+00
1.478000000000000000e+03 0.000000000000000000e+00
1.479000000000000000e+03 0.000000000000000000e+00
1.480000000000000000e+03 0.000000000000000000e+00
1.481000000000000000e+03 0.000000000000000000e+00
1.482000000000000000e+03 0.000000000000000000e+00
1.483000000000000000e+03 0.000000000000000000e+00
1.484000000000000000e+03 0.000000000000000000e+00
1.485000000000000000e+03 0.000000000000000000e+00
1.486000000000000000e+03 0.000000000000000000e+00
1.487000000000000000e+03 0.000000000000000000e+00
1.488000000000000000e+03 0.000000000000000000e+00
1.489000000000000000e+03 0.000000000000000000e+00
1.490000000000000000e+03 0.000000000000000000e+00
1.491000000000000000e+03 0.000000000000000000e+00
1.492000000000000000e+03 0.000000000000000000e+00
1.493000000000000000e+03 0.000000000000000000e+00
1.494000000000000000e+03 0.000000000000000000e+00
1.495000000000000000e+03 0.000000000000000000e+00
1.496000000000000000e+03 0.000000000000000000e+00
1.497000000000000000e+03 0.000000000000000000e+00
1.498000000000000000e+03 0.000000000000000000e+00
1.499000000000000000e+03 0.000000000000000000e+00
1.500000000000000000e+03 0.000000000000000000e+00
