1.010000000000000000e+02 0.000000000000000000e+00
1.020000000000000000e+02 0.000000000000000000e+00
1.030000000000000000e+02 0.000000000000000000e+00
1.040000000000000000e+02 0.000000000000000000e+00
1.050000000000000000e+02 0.000000000000000000e+00
1.060000000000000000e+02 0.000000000000000000e+00
1.070000000000000000e+02 0.000000000000000000e+00
1.080000000000000000e+02 0.000000000000000000e+00
1.090000000000000000e+02 0.000000000000000000e+00
1.100000000000000000e+02 0.000000000000000000e+00
1.110000000000000000e+02 0.000000000000000000e+00
1.120000000000000000e+02 0.000000000000000000e+00
1.130000000000000000e+02 0.000000000000000000e+00
1.140000000000000000e+02 0.000000000000000000e+00
1.150000000000000000e+02 0.000000000000000000e+00
1.160000000000000000e+02 0.000000000000000000e+00
1.170000000000000000e+02 0.000000000000000000e+00
1.180000000000000000e+02 0.000000000000000000e+00
1.190000000000000000e+02 0.000000000000000000e+00
1.200000000000000000e+02 0.000000000000000000e+00
1.210000000000000000e+02 0.000000000000000000e+00
1.220000000000000000e+02 0.000000000000000000e+00
1.230000000000000000e+02 0.000000000000000000e+00
1.240000000000000000e+02 0.000000000000000000e+00
1.250000000000000000e+02 0.000000000000000000e+00
1.260000000000000000e+02 0.000000000000000000e+00
1.270000000000000000e+02 0.000000000000000000e+00
1.280000000000000000e+02 0.000000000000000000e+00
1.290000000000000000e+02 0.000000000000000000e+00
1.300000000000000000e+02 2.540059639079541576e+00
1.310000000000000000e+02 1.044956041070313546e+01
1.320000000000000000e+02 3.411756990873270468e+01
1.330000000000000000e+02 4.991950260734278544e+01
1.340000000000000000e+02 9.825028406969465777e+01
1.350000000000000000e+02 9.396008303878822687e+01
1.360000000000000000e+02 4.722418318606084853e+01
1.370000000000000000e+02 9.238118208255574615e+00
1.380000000000000000e+02 1.309669856876174698e+01
1.390000000000000000e+02 1.273746666459275900e+01
1.400000000000000000e+02 4.978176509023045071e+01
1.410000000000000000e+02 6.649317537647790743e+01
1.420000000000000000e+02 1.262931766645914848e+02
1.430000000000000000e+02 2.236725713130050224e+02
1.440000000000000000e+02 2.842000936955627708e+02
1.450000000000000000e+02 4.061301978012860445e+02
1.460000000000000000e+02 5.620910735739464599e+02
1.470000000000000000e+02 6.883875881377022097e+02
1.480000000000000000e+02 7.123260640945859450e+02
1.490000000000000000e+02 6.160595996888608852e+02
1.500000000000000000e+02 4.844211877436754321e+02
1.510000000000000000e+02 3.825796140634730591e+02
1.520000000000000000e+02 3.415133668948348031e+02
1.530000000000000000e+02 3.346538187474077404e+02
1.540000000000000000e+02 3.453132726405310109e+02
1.550000000000000000e+02 3.841810936735113273e+02
1.560000000000000000e+02 4.414022841319232384e+02
1.570000000000000000e+02 4.681801771624145090e+02
1.580000000000000000e+02 4.761029479883865747e+02
1.590000000000000000e+02 4.508156260319439639e+02
1.600000000000000000e+02 4.308998917444512244e+02
1.610000000000000000e+02 4.851638880132729810e+02
1.620000000000000000e+02 5.282783524579963341e+02
1.630000000000000000e+02 5.856777886745485375e+02
1.640000000000000000e+02 6.834587850891754215e+02
1.650000000000000000e+02 8.180580709396404018e+02
1.660000000000000000e+02 9.357462451151218374e+02
1.670000000000000000e+02 1.028364901327249754e+03
1.680000000000000000e+02 1.047856343289774259e+03
1.690000000000000000e+02 9.921379472308644836e+02
1.700000000000000000e+02 9.777811392034849405e+02
1.710000000000000000e+02 1.053548469819539378e+03
1.720000000000000000e+02 1.186695171956024751e+03
1.730000000000000000e+02 1.351874400746735546e+03
1.740000000000000000e+02 1.555459326695707887e+03
1.750000000000000000e+02 1.764309585563161590e+03
1.760000000000000000e+02 2.025272405102673702e+03
1.770000000000000000e+02 2.306122693217171673e+03
1.780000000000000000e+02 2.515917891308858543e+03
1.790000000000000000e+02 2.597300797552375116e+03
1.800000000000000000e+02 2.470596376477909871e+03
1.810000000000000000e+02 2.236971510475007108e+03
1.820000000000000000e+02 2.025254369218002239e+03
1.830000000000000000e+02 1.824599372744243283e+03
1.840000000000000000e+02 1.711849548734964856e+03
1.850000000000000000e+02 1.679243285625388808e+03
1.860000000000000000e+02 1.713546983820783453e+03
1.870000000000000000e+02 1.834603575072584817e+03
1.880000000000000000e+02 1.944649399502177857e+03
1.890000000000000000e+02 2.085143542626010003e+03
1.900000000000000000e+02 2.235668276233928282e+03
1.910000000000000000e+02 2.303638234598631243e+03
1.920000000000000000e+02 2.273863416511097057e+03
1.930000000000000000e+02 2.105241140634724616e+03
1.940000000000000000e+02 1.828245822028628254e+03
1.950000000000000000e+02 1.503835290188754016e+03
1.960000000000000000e+02 1.199647572910183953e+03
1.970000000000000000e+02 9.420532232939231108e+02
1.980000000000000000e+02 7.399417048942361816e+02
1.990000000000000000e+02 5.874245068450512690e+02
2.000000000000000000e+02 4.484502270275870046e+02
2.010000000000000000e+02 3.531563730402323245e+02
2.020000000000000000e+02 2.752089939846512152e+02
2.030000000000000000e+02 2.146945283758555547e+02
2.040000000000000000e+02 1.919862277063457441e+02
2.050000000000000000e+02 1.560250350964530242e+02
2.060000000000000000e+02 1.322686862269239612e+02
2.070000000000000000e+02 1.162576496681872698e+02
2.080000000000000000e+02 9.514457887990027984e+01
2.090000000000000000e+02 8.655887649242889381e+01
2.100000000000000000e+02 5.755889900020758176e+01
2.110000000000000000e+02 4.190275372744227411e+01
2.120000000000000000e+02 5.003020568139380231e+01
2.130000000000000000e+02 4.095294427504667567e+01
2.140000000000000000e+02 5.283556650280021216e+01
2.150000000000000000e+02 6.695845106409451830e+01
2.160000000000000000e+02 7.096883212818913478e+01
2.170000000000000000e+02 6.819706777846920431e+01
2.180000000000000000e+02 7.388332110143124964e+01
2.190000000000000000e+02 1.205883204107025790e+02
2.200000000000000000e+02 1.557024935697987189e+02
2.210000000000000000e+02 1.550076515245800692e+02
2.220000000000000000e+02 2.062911742377100666e+02
2.230000000000000000e+02 2.383596595727026113e+02
2.240000000000000000e+02 2.799863181667353160e+02
2.250000000000000000e+02 3.486203735532055248e+02
2.260000000000000000e+02 4.385773605476045987e+02
2.270000000000000000e+02 5.394572737868102195e+02
2.280000000000000000e+02 6.533576224642177976e+02
2.290000000000000000e+02 7.639353156606524635e+02
2.300000000000000000e+02 8.696940276913508114e+02
2.310000000000000000e+02 1.036519214436838638e+03
2.320000000000000000e+02 1.158413712092926062e+03
2.330000000000000000e+02 1.184671636797344945e+03
2.340000000000000000e+02 1.090948754615224061e+03
2.350000000000000000e+02 8.594167853764774918e+02
2.360000000000000000e+02 6.571831225886758148e+02
2.370000000000000000e+02 4.588810438498256872e+02
2.380000000000000000e+02 2.746863455205292439e+02
2.390000000000000000e+02 1.386455793611283127e+02
2.400000000000000000e+02 1.096121138145613969e+02
2.410000000000000000e+02 6.036994834923267206e+01
2.420000000000000000e+02 8.758988845467484907e+00
2.430000000000000000e+02 2.161848274216978893e+01
2.440000000000000000e+02 4.238482579635000747e+01
2.450000000000000000e+02 6.579918716863700467e+01
2.460000000000000000e+02 7.012572853349919910e+01
2.470000000000000000e+02 7.111373382828708145e+01
2.480000000000000000e+02 9.384533706492427996e+01
2.490000000000000000e+02 8.044004247044193789e+01
2.500000000000000000e+02 8.710960234598647389e+01
2.510000000000000000e+02 8.828435998340570734e+01
2.520000000000000000e+02 7.015938333540759686e+01
2.530000000000000000e+02 7.936664802115734574e+01
2.540000000000000000e+02 9.565177729931539830e+01
2.550000000000000000e+02 8.410939403028373818e+01
2.560000000000000000e+02 4.994360859987587986e+01
2.570000000000000000e+02 2.734302236465428848e+01
2.580000000000000000e+02 2.564426504044803323e+01
2.590000000000000000e+02 1.560314160547633833e+01
2.600000000000000000e+02 1.244344259137043451e+01
2.610000000000000000e+02 4.298717403443315987e+01
2.620000000000000000e+02 4.753644148724328033e+01
2.630000000000000000e+02 5.886489831985027621e+01
2.640000000000000000e+02 9.556926301119774791e+01
2.650000000000000000e+02 1.427987645094378593e+02
2.660000000000000000e+02 1.759591174030282161e+02
2.670000000000000000e+02 2.174072250311072594e+02
2.680000000000000000e+02 2.772414362165531543e+02
2.690000000000000000e+02 3.271451110972828360e+02
2.700000000000000000e+02 3.604541712567404375e+02
2.710000000000000000e+02 4.128451985065349277e+02
2.720000000000000000e+02 4.805536711885509362e+02
2.730000000000000000e+02 5.426576093737029396e+02
2.740000000000000000e+02 5.995140299108084037e+02
2.750000000000000000e+02 6.595308372536828756e+02
2.760000000000000000e+02 6.983770600995432005e+02
2.770000000000000000e+02 7.312171004355933519e+02
2.780000000000000000e+02 7.815576733457774026e+02
2.790000000000000000e+02 8.509095246007047990e+02
2.800000000000000000e+02 9.143384636382481858e+02
2.810000000000000000e+02 1.010760369840282692e+03
2.820000000000000000e+02 1.092806964530180494e+03
2.830000000000000000e+02 1.170656848993984113e+03
2.840000000000000000e+02 1.272212098942129614e+03
2.850000000000000000e+02 1.359252977598009466e+03
2.860000000000000000e+02 1.485976380211574906e+03
2.870000000000000000e+02 1.598330219663972230e+03
2.880000000000000000e+02 1.703442404065548999e+03
2.890000000000000000e+02 1.874281170711472896e+03
2.900000000000000000e+02 2.030804295374399544e+03
2.910000000000000000e+02 2.205238184816433204e+03
2.920000000000000000e+02 2.384901447117381394e+03
2.930000000000000000e+02 2.561671279195184525e+03
2.940000000000000000e+02 2.779424501348263220e+03
2.950000000000000000e+02 2.988466773537947574e+03
2.960000000000000000e+02 3.175670282514000064e+03
2.970000000000000000e+02 3.380416308442228910e+03
2.980000000000000000e+02 3.654248009124843520e+03
2.990000000000000000e+02 3.984201256378345079e+03
3.000000000000000000e+02 4.296892803982575060e+03
3.010000000000000000e+02 4.650584139568648425e+03
3.020000000000000000e+02 5.051238555693843409e+03
3.030000000000000000e+02 5.384999512964116548e+03
3.040000000000000000e+02 5.768990962041079911e+03
3.050000000000000000e+02 6.126546507156196640e+03
3.060000000000000000e+02 6.329667289981332033e+03
3.070000000000000000e+02 6.303224745281064315e+03
3.080000000000000000e+02 6.121934337689278436e+03
3.090000000000000000e+02 5.719193553826995412e+03
3.100000000000000000e+02 5.219073109520853905e+03
3.110000000000000000e+02 4.697064180253070845e+03
3.120000000000000000e+02 4.136509319435816906e+03
3.130000000000000000e+02 3.532101766645927910e+03
3.140000000000000000e+02 3.089442365276917826e+03
3.150000000000000000e+02 2.753531671644892867e+03
3.160000000000000000e+02 2.446544459655672654e+03
3.170000000000000000e+02 2.195385451358639784e+03
3.180000000000000000e+02 2.055435727291580861e+03
3.190000000000000000e+02 1.977081902302426442e+03
3.200000000000000000e+02 1.933130435386849058e+03
3.210000000000000000e+02 1.920961966818747669e+03
3.220000000000000000e+02 1.978152472308651340e+03
3.230000000000000000e+02 2.109962772868701450e+03
3.240000000000000000e+02 2.252000804852757028e+03
3.250000000000000000e+02 2.402032356150177293e+03
3.260000000000000000e+02 2.614545075710438596e+03
3.270000000000000000e+02 2.849462101617584722e+03
3.280000000000000000e+02 3.109457115743616214e+03
3.290000000000000000e+02 3.389096261978835628e+03
3.300000000000000000e+02 3.685015151182080444e+03
3.310000000000000000e+02 4.011249537232935836e+03
3.320000000000000000e+02 4.251943916614805858e+03
3.330000000000000000e+02 4.530733691972620363e+03
3.340000000000000000e+02 4.822818616677037426e+03
3.350000000000000000e+02 5.083454644679523881e+03
3.360000000000000000e+02 5.459987012860406139e+03
3.370000000000000000e+02 5.738051831362789926e+03
3.380000000000000000e+02 5.985689314872432988e+03
3.390000000000000000e+02 6.182026355527901615e+03
3.400000000000000000e+02 6.183642204314455739e+03
3.410000000000000000e+02 5.907209032358428885e+03
3.420000000000000000e+02 5.379304850031130627e+03
3.430000000000000000e+02 4.721173376270467088e+03
3.440000000000000000e+02 4.017212094566557425e+03
3.450000000000000000e+02 3.327386017838633052e+03
3.460000000000000000e+02 2.829180217797148089e+03
3.470000000000000000e+02 2.402994625673986320e+03
3.480000000000000000e+02 2.035047949595522823e+03
3.490000000000000000e+02 1.757897539514627169e+03
3.500000000000000000e+02 1.550815351721279285e+03
3.510000000000000000e+02 1.365817123833229971e+03
3.520000000000000000e+02 1.240311948569057677e+03
3.530000000000000000e+02 1.185168041485168715e+03
3.540000000000000000e+02 1.171390816220701026e+03
3.550000000000000000e+02 1.150284711737867838e+03
3.560000000000000000e+02 1.195631413814562848e+03
3.570000000000000000e+02 1.284260676208256882e+03
3.580000000000000000e+02 1.421594768097900669e+03
3.590000000000000000e+02 1.623726634100805541e+03
3.600000000000000000e+02 1.805707828251405772e+03
3.610000000000000000e+02 2.104082121966392606e+03
3.620000000000000000e+02 2.431718496784894342e+03
3.630000000000000000e+02 2.769025696121127112e+03
3.640000000000000000e+02 3.227157952084627595e+03
3.650000000000000000e+02 3.762233407591780633e+03
3.660000000000000000e+02 4.375275168844628752e+03
3.670000000000000000e+02 5.035176757519189778e+03
3.680000000000000000e+02 5.738184863928645427e+03
3.690000000000000000e+02 6.545493333540754065e+03
3.700000000000000000e+02 7.445917800248923413e+03
3.710000000000000000e+02 8.410656550923053146e+03
3.720000000000000000e+02 9.313885766072173283e+03
3.730000000000000000e+02 1.005363285666875709e+04
3.740000000000000000e+02 1.063663435594275688e+04
3.750000000000000000e+02 1.080812445250933160e+04
3.760000000000000000e+02 1.058649308234807177e+04
3.770000000000000000e+02 9.963407317154094926e+03
3.780000000000000000e+02 8.973875423475732532e+03
3.790000000000000000e+02 7.833375919103940760e+03
3.800000000000000000e+02 6.629757698402849201e+03
3.810000000000000000e+02 5.506044981957704294e+03
3.820000000000000000e+02 4.549030591371092669e+03
3.830000000000000000e+02 3.764456729309282309e+03
3.840000000000000000e+02 3.080435393197840312e+03
3.850000000000000000e+02 2.495572902717278339e+03
3.860000000000000000e+02 2.034852864550925005e+03
3.870000000000000000e+02 1.679184985272760514e+03
3.880000000000000000e+02 1.380801270690725687e+03
3.890000000000000000e+02 1.122131668948350352e+03
3.900000000000000000e+02 9.194743546774489005e+02
3.910000000000000000e+02 7.667975721012215899e+02
3.920000000000000000e+02 6.486161245799614790e+02
3.930000000000000000e+02 5.487867758556341187e+02
3.940000000000000000e+02 4.335292067205944022e+02
3.950000000000000000e+02 3.373942415473950405e+02
3.960000000000000000e+02 2.632737733457800573e+02
3.970000000000000000e+02 2.090617322339774091e+02
3.980000000000000000e+02 1.853507524056419413e+02
3.990000000000000000e+02 1.391300265919937260e+02
4.000000000000000000e+02 9.826324330221994785e+01
4.010000000000000000e+02 6.098649954375828486e+01
4.020000000000000000e+02 2.459938801493463956e+01
4.030000000000000000e+02 4.036593409873394656e+00
4.040000000000000000e+02 1.650246948983825135e+01
4.050000000000000000e+02 1.374813135241639905e+01
4.060000000000000000e+02 3.331806166148122372e+01
4.070000000000000000e+02 7.197358897967669122e+01
4.080000000000000000e+02 5.495225523335371776e+01
4.090000000000000000e+02 5.160919702966194933e+01
4.100000000000000000e+02 6.101215768145971907e+01
4.110000000000000000e+02 6.637392685127568370e+01
4.120000000000000000e+02 6.489054819746965563e+01
4.130000000000000000e+02 7.509991861232126098e+01
4.140000000000000000e+02 5.831376394731416468e+01
4.150000000000000000e+02 6.155866371499666201e+01
4.160000000000000000e+02 7.350958953951463570e+01
4.170000000000000000e+02 6.995352307197677533e+01
4.180000000000000000e+02 6.817917285210546652e+01
4.190000000000000000e+02 6.039253896079649309e+01
4.200000000000000000e+02 1.299540418792807372e+01
4.210000000000000000e+02 1.641674987347044379e+01
4.220000000000000000e+02 1.811265955486445023e+01
4.230000000000000000e+02 2.994025111802534767e+01
4.240000000000000000e+02 4.501741631404309629e+01
4.250000000000000000e+02 2.378497409707450316e+01
4.260000000000000000e+02 1.517408329531346922e+01
4.270000000000000000e+02 4.187651180045598664e+01
4.280000000000000000e+02 5.479602287284834006e+01
4.290000000000000000e+02 7.118081266279575914e+01
4.300000000000000000e+02 9.447845075295541051e+01
4.310000000000000000e+02 1.202279223190204505e+02
4.320000000000000000e+02 1.469897500207379153e+02
4.330000000000000000e+02 1.847083424808128029e+02
4.340000000000000000e+02 2.451139502177963436e+02
4.350000000000000000e+02 2.869005039817503757e+02
4.360000000000000000e+02 3.109124551960174472e+02
4.370000000000000000e+02 3.341560342252643636e+02
4.380000000000000000e+02 3.507928257776858345e+02
4.390000000000000000e+02 3.603427113254509777e+02
4.400000000000000000e+02 3.174210870981120252e+02
4.410000000000000000e+02 2.650612472516070284e+02
4.420000000000000000e+02 2.328035619995837635e+02
4.430000000000000000e+02 1.636137232109513775e+02
4.440000000000000000e+02 1.421824404480399835e+02
4.450000000000000000e+02 1.367551345986310025e+02
4.460000000000000000e+02 1.081500583592601856e+02
4.470000000000000000e+02 6.366644667911258892e+01
4.480000000000000000e+02 6.263753130055994234e+01
4.490000000000000000e+02 7.391496534951228625e+01
4.500000000000000000e+02 5.814769269238765759e+01
4.510000000000000000e+02 4.186641814353875901e+01
4.520000000000000000e+02 4.825687545416826651e+01
4.530000000000000000e+02 5.580848425015557979e+01
4.540000000000000000e+02 5.840895268823894071e+01
4.550000000000000000e+02 6.811377068436331683e+01
4.560000000000000000e+02 6.299088052063856935e+01
4.570000000000000000e+02 4.902040059116374948e+01
4.580000000000000000e+02 6.925517889257585580e+01
4.590000000000000000e+02 6.991743925948958349e+01
4.600000000000000000e+02 5.979975607550284167e+01
4.610000000000000000e+02 5.579005860223971069e+01
4.620000000000000000e+02 6.079179400124438359e+01
4.630000000000000000e+02 6.739017554864150839e+01
4.640000000000000000e+02 7.117168578183324712e+01
4.650000000000000000e+02 6.233063654428566736e+01
4.660000000000000000e+02 5.950051092719338186e+01
4.670000000000000000e+02 6.691268035469812503e+01
4.680000000000000000e+02 7.563291334785324693e+01
4.690000000000000000e+02 5.845255535573550532e+01
4.700000000000000000e+02 5.936148604231490111e+01
4.710000000000000000e+02 5.542567110765404692e+01
4.720000000000000000e+02 4.289884607135453365e+01
4.730000000000000000e+02 4.065644192283760106e+01
4.740000000000000000e+02 4.700570165525831356e+01
4.750000000000000000e+02 6.612623619788429608e+01
4.760000000000000000e+02 6.985551775357794213e+01
4.770000000000000000e+02 7.502734192906065402e+01
4.780000000000000000e+02 1.057531009707532519e+02
4.790000000000000000e+02 1.175750624766646126e+02
4.800000000000000000e+02 1.164859306160551142e+02
4.810000000000000000e+02 1.569760541683957058e+02
4.820000000000000000e+02 2.072721700477075046e+02
4.830000000000000000e+02 2.321705076540130506e+02
4.840000000000000000e+02 2.667968274160090800e+02
4.850000000000000000e+02 3.276318287492214836e+02
4.860000000000000000e+02 3.908197559012643865e+02
4.870000000000000000e+02 4.705097769805055350e+02
4.880000000000000000e+02 5.701558611698816321e+02
4.890000000000000000e+02 6.608039515868072158e+02
4.900000000000000000e+02 7.419143520116142554e+02
4.910000000000000000e+02 8.627331710018679587e+02
4.920000000000000000e+02 9.826346234757392040e+02
4.930000000000000000e+02 1.079610672474592548e+03
4.940000000000000000e+02 1.168720919103921233e+03
4.950000000000000000e+02 1.191299762912259439e+03
4.960000000000000000e+02 1.122206330221948292e+03
4.970000000000000000e+02 1.024749417693422174e+03
4.980000000000000000e+02 9.002676050611928531e+02
4.990000000000000000e+02 7.207622970130707927e+02
5.000000000000000000e+02 5.723907623107269274e+02
5.010000000000000000e+02 4.579206743621658688e+02
5.020000000000000000e+02 3.676002575399301691e+02
5.030000000000000000e+02 2.815875816428140297e+02
5.040000000000000000e+02 2.072981384567514169e+02
5.050000000000000000e+02 2.118871563783447414e+02
5.060000000000000000e+02 1.914122582953133360e+02
5.070000000000000000e+02 1.460166946691551573e+02
5.080000000000000000e+02 1.201813020535159637e+02
5.090000000000000000e+02 1.267332375777685058e+02
5.100000000000000000e+02 1.244776915162833291e+02
5.110000000000000000e+02 1.524803580584945735e+02
5.120000000000000000e+02 1.616724114682703259e+02
5.130000000000000000e+02 1.630224565028002814e+02
5.140000000000000000e+02 1.832374907488074598e+02
5.150000000000000000e+02 2.223916128577361917e+02
5.160000000000000000e+02 2.537755175897126492e+02
5.170000000000000000e+02 3.166605876789067224e+02
5.180000000000000000e+02 3.577492490667781908e+02
5.190000000000000000e+02 3.815509993154961421e+02
5.200000000000000000e+02 4.251515336444745685e+02
5.210000000000000000e+02 4.826363199751075399e+02
5.220000000000000000e+02 4.972333271935277708e+02
5.230000000000000000e+02 5.259797558805241806e+02
5.240000000000000000e+02 5.308227537647800318e+02
5.250000000000000000e+02 4.823638860817266618e+02
5.260000000000000000e+02 4.402240731176119084e+02
5.270000000000000000e+02 3.618415858742999376e+02
5.280000000000000000e+02 3.122935877203900077e+02
5.290000000000000000e+02 2.839306963493051512e+02
5.300000000000000000e+02 2.585138367766018632e+02
5.310000000000000000e+02 2.344014650280019794e+02
5.320000000000000000e+02 2.033919664384977466e+02
5.330000000000000000e+02 2.053579822443481078e+02
5.340000000000000000e+02 2.173944654843397188e+02
5.350000000000000000e+02 2.295603592700126967e+02
5.360000000000000000e+02 2.407675390790296319e+02
5.370000000000000000e+02 2.551632917859371332e+02
5.380000000000000000e+02 2.899315170468697147e+02
5.390000000000000000e+02 3.458275749636986234e+02
5.400000000000000000e+02 4.192960380211591200e+02
5.410000000000000000e+02 5.202434930927187224e+02
5.420000000000000000e+02 6.554473190831768079e+02
5.430000000000000000e+02 7.727960482057654872e+02
5.440000000000000000e+02 9.276800357394758976e+02
5.450000000000000000e+02 1.094806783447419775e+03
5.460000000000000000e+02 1.280512946495233336e+03
5.470000000000000000e+02 1.504878461729937271e+03
5.480000000000000000e+02 1.708076493258664414e+03
5.490000000000000000e+02 1.957844645582749763e+03
5.500000000000000000e+02 2.245524096453025322e+03
5.510000000000000000e+02 2.515187726405313697e+03
5.520000000000000000e+02 2.686515576109499307e+03
5.530000000000000000e+02 2.670689075710430643e+03
5.540000000000000000e+02 2.420883865588048593e+03
5.550000000000000000e+02 2.060990261302357339e+03
5.560000000000000000e+02 1.669853507985900023e+03
5.570000000000000000e+02 1.303467133582241786e+03
5.580000000000000000e+02 1.003103889672329501e+03
5.590000000000000000e+02 7.633446761667684086e+02
5.600000000000000000e+02 6.063524053723290308e+02
5.610000000000000000e+02 4.746051872225656325e+02
5.620000000000000000e+02 3.535688189379786195e+02
5.630000000000000000e+02 2.587368175482265542e+02
5.640000000000000000e+02 2.113964066583690453e+02
5.650000000000000000e+02 1.737620290188755803e+02
5.660000000000000000e+02 1.374920516490356306e+02
5.670000000000000000e+02 9.846761165733205701e+01
5.680000000000000000e+02 7.711614649657747123e+01
5.690000000000000000e+02 7.453617965567332249e+01
5.700000000000000000e+02 2.680785176726789132e+01
5.710000000000000000e+02 2.387080795478113515e+01
5.720000000000000000e+02 1.504917354075942981e+01
5.730000000000000000e+02 9.715777044804013940e+00
5.740000000000000000e+02 1.388583785521670677e+01
5.750000000000000000e+02 1.319666002073819300e+01
5.760000000000000000e+02 1.318980124040655966e+01
5.770000000000000000e+02 1.156532375855631756e+01
5.780000000000000000e+02 1.142480126503525817e+01
5.790000000000000000e+02 1.262281670607756290e+01
5.800000000000000000e+02 2.146575327110528519e+01
5.810000000000000000e+02 4.203573253836572832e+01
5.820000000000000000e+02 2.901385665214705512e+01
5.830000000000000000e+02 2.880058660858721353e+01
5.840000000000000000e+02 4.143077424720022606e+01
5.850000000000000000e+02 4.482638445965572771e+01
5.860000000000000000e+02 3.283691001244580576e+01
5.870000000000000000e+02 3.293230325451155238e+01
5.880000000000000000e+02 6.191847594275089683e+00
5.890000000000000000e+02 1.248106944306145039e+01
5.900000000000000000e+02 2.375552407799241550e+01
5.910000000000000000e+02 4.039667734287604617e+00
5.920000000000000000e+02 1.218895911429163270e+01
5.930000000000000000e+02 5.108852454055225145e+00
5.940000000000000000e+02 2.761711040447944043e+01
5.950000000000000000e+02 4.025189402613593614e+01
5.960000000000000000e+02 2.743997215930333056e+01
5.970000000000000000e+02 2.103148967019286530e+01
5.980000000000000000e+02 3.704843103712897090e+01
5.990000000000000000e+02 5.713747200788173330e+01
6.000000000000000000e+02 6.299928771416718121e+01
6.010000000000000000e+02 6.632367510889849882e+01
6.020000000000000000e+02 7.027609527898785302e+01
6.030000000000000000e+02 6.601768459240838638e+01
6.040000000000000000e+02 8.729227379589330837e+01
6.050000000000000000e+02 1.134047185438708567e+02
6.060000000000000000e+02 1.333689138767888096e+02
6.070000000000000000e+02 1.454796675585975834e+02
6.080000000000000000e+02 1.541955016179219058e+02
6.090000000000000000e+02 1.643954764156812018e+02
6.100000000000000000e+02 1.728077365899189033e+02
6.110000000000000000e+02 1.701960463389340532e+02
6.120000000000000000e+02 2.017974878448440279e+02
6.130000000000000000e+02 2.380310240199122518e+02
6.140000000000000000e+02 2.343211431563654230e+02
6.150000000000000000e+02 2.702299533914122094e+02
6.160000000000000000e+02 2.891113592823061254e+02
6.170000000000000000e+02 3.392317381999163786e+02
6.180000000000000000e+02 3.846382280024892566e+02
6.190000000000000000e+02 3.972040280647168515e+02
6.200000000000000000e+02 4.050776348403144311e+02
6.210000000000000000e+02 4.358923277120940156e+02
6.220000000000000000e+02 4.748669137730772718e+02
6.230000000000000000e+02 5.200958509230435993e+02
6.240000000000000000e+02 5.576302052271300909e+02
6.250000000000000000e+02 5.854840112839674475e+02
6.260000000000000000e+02 6.236029544907678428e+02
6.270000000000000000e+02 7.084756859157829467e+02
6.280000000000000000e+02 7.440728793861450185e+02
6.290000000000000000e+02 8.166652924704396810e+02
6.300000000000000000e+02 8.929354394731376487e+02
6.310000000000000000e+02 9.401265945665685422e+02
6.320000000000000000e+02 1.041927589089400726e+03
6.330000000000000000e+02 1.135549005600497821e+03
6.340000000000000000e+02 1.215446795313149096e+03
6.350000000000000000e+02 1.325514989836136692e+03
6.360000000000000000e+02 1.461132039618339149e+03
6.370000000000000000e+02 1.614714975114052322e+03
6.380000000000000000e+02 1.822610096453026927e+03
6.390000000000000000e+02 1.991506247873892335e+03
6.400000000000000000e+02 2.227953006636238570e+03
6.410000000000000000e+02 2.518986510889841611e+03
6.420000000000000000e+02 2.851978645924063585e+03
6.430000000000000000e+02 3.258011694461717980e+03
6.440000000000000000e+02 3.761029125077769550e+03
6.450000000000000000e+02 4.353494578925516180e+03
6.460000000000000000e+02 5.027017254096657780e+03
6.470000000000000000e+02 5.861931756067200695e+03
6.480000000000000000e+02 6.898328852105364604e+03
6.490000000000000000e+02 8.086794485998775599e+03
6.500000000000000000e+02 9.354507110972848750e+03
6.510000000000000000e+02 1.085895415059118568e+04
6.520000000000000000e+02 1.252859660236472155e+04
6.530000000000000000e+02 1.433430354075924697e+04
6.540000000000000000e+02 1.630178793446710006e+04
6.550000000000000000e+02 1.845110877618762606e+04
6.560000000000000000e+02 2.070759028002498235e+04
6.570000000000000000e+02 2.295466676068029119e+04
6.580000000000000000e+02 2.489334118855004272e+04
6.590000000000000000e+02 2.610974544700267506e+04
6.600000000000000000e+02 2.629126417254249827e+04
6.610000000000000000e+02 2.533653267579341991e+04
6.620000000000000000e+02 2.330888300767478358e+04
6.630000000000000000e+02 2.049456949398588768e+04
6.640000000000000000e+02 1.738186088155980906e+04
6.650000000000000000e+02 1.435975780958304676e+04
6.660000000000000000e+02 1.171124790128569839e+04
6.670000000000000000e+02 9.615300922630098285e+03
6.680000000000000000e+02 7.980705655673062211e+03
6.690000000000000000e+02 6.593097310723867849e+03
6.700000000000000000e+02 5.504020264467924790e+03
6.710000000000000000e+02 4.598520635345345909e+03
6.720000000000000000e+02 3.845306902302405888e+03
6.730000000000000000e+02 3.319988392242260488e+03
6.740000000000000000e+02 2.851341769757304519e+03
6.750000000000000000e+02 2.461205115743627630e+03
6.760000000000000000e+02 2.125812998755450735e+03
6.770000000000000000e+02 1.853640481642809846e+03
6.780000000000000000e+02 1.636413326488279381e+03
6.790000000000000000e+02 1.446180158058493589e+03
6.800000000000000000e+02 1.281892237087741023e+03
6.810000000000000000e+02 1.153873305953118916e+03
6.820000000000000000e+02 1.023922879236670951e+03
6.830000000000000000e+02 8.940898612194099542e+02
6.840000000000000000e+02 7.961338311761036266e+02
6.850000000000000000e+02 7.382731193113451127e+02
6.860000000000000000e+02 6.334574802571537475e+02
6.870000000000000000e+02 5.760669399709596519e+02
6.880000000000000000e+02 5.247628660236462110e+02
6.890000000000000000e+02 4.929240917876398385e+02
6.900000000000000000e+02 4.530399721841932887e+02
6.910000000000000000e+02 3.847667224019911600e+02
6.920000000000000000e+02 3.746988975528825563e+02
6.930000000000000000e+02 3.549763527069073348e+02
6.940000000000000000e+02 3.268442304086289596e+02
6.950000000000000000e+02 3.216364852312799485e+02
6.960000000000000000e+02 3.233877534951254233e+02
6.970000000000000000e+02 3.080494782202862893e+02
6.980000000000000000e+02 3.049715942750466411e+02
6.990000000000000000e+02 3.047948073843601264e+02
7.000000000000000000e+02 3.199812127359467127e+02
7.010000000000000000e+02 3.157245078821819675e+02
7.020000000000000000e+02 3.038029672682015985e+02
7.030000000000000000e+02 3.046651061398050615e+02
7.040000000000000000e+02 2.907664078199543383e+02
7.050000000000000000e+02 2.603199505704213266e+02
7.060000000000000000e+02 2.104775570628509911e+02
7.070000000000000000e+02 1.699603856876167640e+02
7.080000000000000000e+02 1.334935218626845312e+02
7.090000000000000000e+02 9.544102148900914528e+01
7.100000000000000000e+02 7.735396227961005877e+01
7.110000000000000000e+02 7.292119996888590094e+01
7.120000000000000000e+02 4.159294211945311304e+01
7.130000000000000000e+02 1.978647928230667219e+01
7.140000000000000000e+02 9.937879105787406075e+00
7.150000000000000000e+02 4.308634052882622356e+00
7.160000000000000000e+02 1.408289028251369501e+01
7.170000000000000000e+02 4.188774898361298682e+01
7.180000000000000000e+02 2.309736756532605284e+01
7.190000000000000000e+02 1.047623359261569043e+01
7.200000000000000000e+02 8.050643560049870473e+00
7.210000000000000000e+02 3.697818461220743202e-01
7.220000000000000000e+02 8.961489444928643522e+00
7.230000000000000000e+02 6.067424214892857215e+00
7.240000000000000000e+02 2.357507209707529938e+01
7.250000000000000000e+02 8.891083385189649135e+00
7.260000000000000000e+02 5.837306573325051318e+00
7.270000000000000000e+02 9.173698070524714865e+00
7.280000000000000000e+02 1.192019500103715934e+01
7.290000000000000000e+02 1.412595488487880324e+01
7.300000000000000000e+02 2.136319969508397776e+01
7.310000000000000000e+02 9.624507438290404338e+00
7.320000000000000000e+02 3.769203537026836415e+00
7.330000000000000000e+02 6.029574905621321257e+00
7.340000000000000000e+02 3.197746873055290706e+00
7.350000000000000000e+02 1.656346640398090742e+01
7.360000000000000000e+02 3.108328266749664692e+01
7.370000000000000000e+02 1.014445469466960503e+01
7.380000000000000000e+02 8.292939554127188861e-01
7.390000000000000000e+02 1.340748110161689866e+01
7.400000000000000000e+02 2.076712328562594223e+01
7.410000000000000000e+02 2.647548315702056954e+00
7.420000000000000000e+02 4.064413635421057158e+00
7.430000000000000000e+02 5.542826993984395045e+00
7.440000000000000000e+02 1.047189196079644624e+01
7.450000000000000000e+02 1.308233927416004683e+01
7.460000000000000000e+02 1.153949676830547943e+01
7.470000000000000000e+02 1.399342142625972407e+01
7.480000000000000000e+02 2.666482414765645004e+01
7.490000000000000000e+02 6.593015601742271414e+00
7.500000000000000000e+02 4.623019085251661942e+00
7.510000000000000000e+02 9.407247338311554685e+00
7.520000000000000000e+02 1.933157191039193634e+01
7.530000000000000000e+02 3.433499219663968915e+01
7.540000000000000000e+02 3.146343159925310218e+01
7.550000000000000000e+02 2.393271255133785047e+01
7.560000000000000000e+02 2.874757017838630446e+01
7.570000000000000000e+02 2.188257644886991216e+01
7.580000000000000000e+02 2.210842126944655917e+01
7.590000000000000000e+02 2.715455368803160141e+01
7.600000000000000000e+02 2.075995989006479547e+01
7.610000000000000000e+02 9.432899943580274282e+00
7.620000000000000000e+02 3.591855542928217915e+01
7.630000000000000000e+02 3.294516217797174562e+01
7.640000000000000000e+02 2.106554005393103068e+01
7.650000000000000000e+02 1.404749308793038942e+01
7.660000000000000000e+02 1.440923991910386270e+01
7.670000000000000000e+02 1.950277177349093449e+01
7.680000000000000000e+02 1.940192624222314777e+01
7.690000000000000000e+02 6.976367251607447528e+00
7.700000000000000000e+02 1.649852610246853857e+01
7.710000000000000000e+02 8.685830497096034719e+00
7.720000000000000000e+02 8.393190043557765545e-01
7.730000000000000000e+02 4.785167958514885633e+00
7.740000000000000000e+02 8.150002754046390407e-01
7.750000000000000000e+02 1.150578948641391364e+01
7.760000000000000000e+02 1.765846256378427270e+01
7.770000000000000000e+02 2.419634561916645055e+01
7.780000000000000000e+02 1.609975333333359515e+01
7.790000000000000000e+02 1.168090062850033561e+01
7.800000000000000000e+02 1.160599524372535463e+01
7.810000000000000000e+02 1.232845240199128334e+01
7.820000000000000000e+02 1.215608622484961288e+01
7.830000000000000000e+02 1.313643184816429610e+01
7.840000000000000000e+02 2.131244923252442902e+01
7.850000000000000000e+02 2.581182393279402021e+01
7.860000000000000000e+02 2.023966235220884613e+01
7.870000000000000000e+02 1.480926016386638722e+01
7.880000000000000000e+02 2.143828482472530439e+01
7.890000000000000000e+02 1.996964218004545799e+01
7.900000000000000000e+02 1.569484136901034965e+01
7.910000000000000000e+02 8.188987004562168437e+00
7.920000000000000000e+02 1.391763462559867826e+00
7.930000000000000000e+02 6.163538975938649855e+00
7.940000000000000000e+02 4.801452408958725826e+00
7.950000000000000000e+02 4.378473625388688006e+00
7.960000000000000000e+02 1.409455937979658025e+01
7.970000000000000000e+02 7.972730671090442200e+00
7.980000000000000000e+02 1.090927728189170054e+01
7.990000000000000000e+02 8.701486306160589379e+00
8.000000000000000000e+02 6.562604636457989749e+00
8.010000000000000000e+02 1.428267612321036273e+00
8.020000000000000000e+02 1.040783175565249330e+01
8.030000000000000000e+02 1.710722088156033749e+01
8.040000000000000000e+02 4.130120473553352767e+00
8.050000000000000000e+02 4.852500760216219788e+00
8.060000000000000000e+02 1.955238213026296989e+01
8.070000000000000000e+02 5.602839277743004942e+00
8.080000000000000000e+02 1.808783956440659368e+00
8.090000000000000000e+02 9.386707081518244067e+00
8.100000000000000000e+02 4.487335406347089162e+00
8.110000000000000000e+02 3.492050543663160145e+00
8.120000000000000000e+02 6.339908195809918823e+00
8.130000000000000000e+02 9.859481286870007466e+00
8.140000000000000000e+02 3.948450306990154424e-01
8.150000000000000000e+02 9.216228332088894248e+00
8.160000000000000000e+02 7.673299771001831360e+00
8.170000000000000000e+02 4.365812974906674526e+00
8.180000000000000000e+02 5.508294037958976652e+00
8.190000000000000000e+02 8.305248107239174615e+00
8.200000000000000000e+02 9.688759596847781097e+00
8.210000000000000000e+02 9.178258695291425795e+00
8.220000000000000000e+02 6.897655300560039393e+00
8.230000000000000000e+02 1.373978835545429877e+00
8.240000000000000000e+02 2.562431136901080464e+01
8.250000000000000000e+02 2.311623833022199648e+01
8.260000000000000000e+02 1.140541478639567075e+01
8.270000000000000000e+02 1.433749873055384505e+01
8.280000000000000000e+02 2.215049891723703723e+01
8.290000000000000000e+02 2.746818507880550086e+01
8.300000000000000000e+02 2.043052870151420919e+01
8.310000000000000000e+02 2.230267276913512120e+01
8.320000000000000000e+02 4.953450154324847432e+01
8.330000000000000000e+02 7.846886967848985250e+01
8.340000000000000000e+02 8.487257249948171989e+01
8.350000000000000000e+02 7.720481437875960751e+01
8.360000000000000000e+02 9.981682196639675908e+01
8.370000000000000000e+02 1.357329636382486058e+02
8.380000000000000000e+02 1.810389677245383382e+02
8.390000000000000000e+02 2.175472544907691486e+02
8.400000000000000000e+02 2.719742943372728519e+02
8.410000000000000000e+02 3.551056856253883325e+02
8.420000000000000000e+02 4.599478754615206526e+02
8.430000000000000000e+02 5.984120615926972278e+02
8.440000000000000000e+02 7.340291945861856675e+02
8.450000000000000000e+02 8.662747859987555330e+02
8.460000000000000000e+02 1.059957278929899303e+03
8.470000000000000000e+02 1.268398043974276334e+03
8.480000000000000000e+02 1.496061186475841168e+03
8.490000000000000000e+02 1.761763250518451969e+03
8.500000000000000000e+02 1.986819182327313683e+03
8.510000000000000000e+02 2.220759957892547845e+03
8.520000000000000000e+02 2.358540517834921502e+03
8.530000000000000000e+02 2.370390989628708667e+03
8.540000000000000000e+02 2.184349110143133203e+03
8.550000000000000000e+02 1.872556085026965548e+03
8.560000000000000000e+02 1.563664069695091939e+03
8.570000000000000000e+02 1.290342251814982774e+03
8.580000000000000000e+02 1.061980685646132315e+03
8.590000000000000000e+02 8.308439846297459326e+02
8.600000000000000000e+02 6.825610221945661351e+02
8.610000000000000000e+02 5.590123490769526597e+02
8.620000000000000000e+02 4.417987380211557706e+02
8.630000000000000000e+02 3.786695999999998321e+02
8.640000000000000000e+02 3.592784523957700458e+02
8.650000000000000000e+02 2.822102871603375434e+02
8.660000000000000000e+02 2.446944541588873676e+02
8.670000000000000000e+02 2.269705910599465994e+02
8.680000000000000000e+02 2.104977388923467174e+02
8.690000000000000000e+02 1.935724045426269129e+02
8.700000000000000000e+02 1.834057640945860896e+02
8.710000000000000000e+02 1.791680817257837930e+02
8.720000000000000000e+02 1.583509917876400550e+02
8.730000000000000000e+02 1.593861869321717961e+02
8.740000000000000000e+02 1.458043289359055734e+02
8.750000000000000000e+02 1.504152910410617778e+02
8.760000000000000000e+02 1.332903781580579334e+02
8.770000000000000000e+02 1.317316288114503777e+02
8.780000000000000000e+02 1.753909672335135213e+02
8.790000000000000000e+02 1.744450457581412763e+02
8.800000000000000000e+02 1.699451834508503509e+02
8.810000000000000000e+02 1.798435520016589066e+02
8.820000000000000000e+02 1.832701067192036533e+02
8.830000000000000000e+02 1.915215989421276674e+02
8.840000000000000000e+02 2.050291966397007570e+02
8.850000000000000000e+02 2.266449624351788827e+02
8.860000000000000000e+02 2.626158694254298780e+02
8.870000000000000000e+02 2.892932968263844487e+02
8.880000000000000000e+02 2.895570303049159975e+02
8.890000000000000000e+02 3.147080369010580512e+02
8.900000000000000000e+02 3.302172246214478264e+02
8.910000000000000000e+02 3.441424590748813443e+02
8.920000000000000000e+02 3.686801977598016151e+02
8.930000000000000000e+02 3.853712511304709665e+02
8.940000000000000000e+02 3.862691119684708951e+02
8.950000000000000000e+02 4.271652203277347439e+02
8.960000000000000000e+02 4.424608801493470196e+02
8.970000000000000000e+02 4.553662550715608290e+02
8.980000000000000000e+02 4.914137175274818219e+02
8.990000000000000000e+02 5.292332948983813594e+02
9.000000000000000000e+02 5.589410286455082542e+02
9.010000000000000000e+02 5.993106837585556832e+02
9.020000000000000000e+02 6.257091139361257319e+02
9.030000000000000000e+02 6.510361616677038228e+02
9.040000000000000000e+02 6.493830592200787351e+02
9.050000000000000000e+02 6.685071099128996366e+02
9.060000000000000000e+02 6.756422459240818625e+02
9.070000000000000000e+02 6.672615028417341136e+02
9.080000000000000000e+02 6.712757661965990792e+02
9.090000000000000000e+02 6.709954030699021814e+02
9.100000000000000000e+02 6.492589232109518207e+02
9.110000000000000000e+02 6.474051118855011282e+02
9.120000000000000000e+02 6.357237551337882451e+02
9.130000000000000000e+02 5.831625083800016682e+02
9.140000000000000000e+02 5.318015152872856106e+02
9.150000000000000000e+02 4.913989658369650328e+02
9.160000000000000000e+02 4.347128735117209430e+02
9.170000000000000000e+02 3.881527540966607717e+02
9.180000000000000000e+02 3.299153572910188359e+02
9.190000000000000000e+02 2.997442655258246873e+02
9.200000000000000000e+02 2.826389523335404874e+02
9.210000000000000000e+02 2.496917501140835611e+02
9.220000000000000000e+02 2.114967600082965760e+02
9.230000000000000000e+02 1.937919498236877871e+02
9.240000000000000000e+02 1.889139466085862580e+02
9.250000000000000000e+02 1.484554845085016268e+02
9.260000000000000000e+02 1.101056713130049900e+02
9.270000000000000000e+02 1.130686622070106040e+02
9.280000000000000000e+02 6.492108047283102223e+01
9.290000000000000000e+02 2.226378893590578656e+01
9.300000000000000000e+02 1.744039826177144548e+01
9.310000000000000000e+02 1.461251520323489217e+01
9.320000000000000000e+02 5.483040997096102487e+00
9.330000000000000000e+02 2.806148696950938159e+00
9.340000000000000000e+02 1.403986129738745348e+01
9.350000000000000000e+02 1.541839375648201838e+01
9.360000000000000000e+02 2.470162321302645125e+01
9.370000000000000000e+02 2.014245289151577722e+01
9.380000000000000000e+02 1.173276221530822561e+01
9.390000000000000000e+02 2.260401926986119037e+01
9.400000000000000000e+02 3.460771193320900352e+01
9.410000000000000000e+02 3.843884639701318662e+01
9.420000000000000000e+02 4.598888004355944759e+01
9.430000000000000000e+02 4.133555168637193589e+01
9.440000000000000000e+02 4.080451210744661950e+01
9.450000000000000000e+02 2.895997253059522691e+01
9.460000000000000000e+02 1.008296267620848319e+01
9.470000000000000000e+02 5.177866579340392406e+00
9.480000000000000000e+02 6.098426938601952507e+00
9.490000000000000000e+02 3.181877201617941520e+00
9.500000000000000000e+02 4.964940975938616496e+00
9.510000000000000000e+02 1.382658556615435907e+00
9.520000000000000000e+02 2.986192240821438304e+01
9.530000000000000000e+02 4.900652165525825410e+01
9.540000000000000000e+02 7.197207313977594367e+01
9.550000000000000000e+02 9.949074574154728623e+01
9.560000000000000000e+02 9.239814124455502053e+01
9.570000000000000000e+02 1.180343248444628728e+02
9.580000000000000000e+02 1.386934473968057091e+02
9.590000000000000000e+02 1.716948817465253683e+02
9.600000000000000000e+02 1.949786524471173834e+02
9.610000000000000000e+02 1.994865187927815953e+02
9.620000000000000000e+02 2.350677570628492674e+02
9.630000000000000000e+02 2.814230445458316581e+02
9.640000000000000000e+02 2.727540391827419626e+02
9.650000000000000000e+02 3.143029858742999068e+02
9.660000000000000000e+02 3.127660277535781006e+02
9.670000000000000000e+02 3.082865762912258560e+02
9.680000000000000000e+02 3.182344124040657221e+02
9.690000000000000000e+02 3.184759924704418381e+02
9.700000000000000000e+02 3.171429210329806097e+02
9.710000000000000000e+02 3.227488010163866647e+02
9.720000000000000000e+02 3.342412982161375226e+02
9.730000000000000000e+02 3.682297619373569546e+02
9.740000000000000000e+02 3.711765497822029261e+02
9.750000000000000000e+02 3.626759210329806820e+02
9.760000000000000000e+02 4.318773629744845266e+02
9.770000000000000000e+02 4.784243783239984396e+02
9.780000000000000000e+02 5.020323261149135305e+02
9.790000000000000000e+02 5.367644768512752762e+02
9.800000000000000000e+02 5.745590194525090055e+02
9.810000000000000000e+02 6.186367131507990962e+02
9.820000000000000000e+02 6.727586889649458044e+02
9.830000000000000000e+02 7.540437979469077163e+02
9.840000000000000000e+02 8.172378909769743132e+02
9.850000000000000000e+02 9.071512023854005520e+02
9.860000000000000000e+02 9.751627999999992653e+02
9.870000000000000000e+02 1.073950980709392297e+03
9.880000000000000000e+02 1.225715156813934300e+03
9.890000000000000000e+02 1.347759826213186216e+03
9.900000000000000000e+02 1.513899388093750986e+03
9.910000000000000000e+02 1.698423983198499627e+03
9.920000000000000000e+02 1.874655727649861774e+03
9.930000000000000000e+02 2.143333688861227074e+03
9.940000000000000000e+02 2.442151444306155099e+03
9.950000000000000000e+02 2.784846974694049095e+03
9.960000000000000000e+02 3.226559630367145928e+03
9.970000000000000000e+02 3.775644439950220203e+03
9.980000000000000000e+02 4.457893487243331037e+03
9.990000000000000000e+02 5.296387666251839619e+03
1.000000000000000000e+03 6.394262019071307805e+03
1.001000000000000000e+03 7.734358340248917557e+03
1.002000000000000000e+03 9.552192132780086467e+03
1.003000000000000000e+03 1.184038547717832444e+04
1.004000000000000000e+03 1.461461887966814356e+04
1.005000000000000000e+03 1.799329047717834328e+04
1.006000000000000000e+03 2.191647182572624297e+04
1.007000000000000000e+03 2.618143958506217677e+04
1.008000000000000000e+03 3.105150950207446658e+04
1.009000000000000000e+03 3.638644609958515503e+04
1.010000000000000000e+03 4.189178825726121431e+04
1.011000000000000000e+03 4.702728601659761625e+04
1.012000000000000000e+03 5.069768622406637587e+04
1.013000000000000000e+03 5.107475512448135851e+04
1.014000000000000000e+03 4.719384358921161038e+04
1.015000000000000000e+03 4.022462433609979780e+04
1.016000000000000000e+03 3.258068834368508396e+04
1.017000000000000000e+03 2.543157854771798884e+04
1.018000000000000000e+03 1.984215692946041599e+04
1.019000000000000000e+03 1.560276107883822442e+04
1.020000000000000000e+03 1.254110468879678774e+04
1.021000000000000000e+03 1.036749066390038752e+04
1.022000000000000000e+03 8.784958120331997634e+03
1.023000000000000000e+03 7.624620263485454416e+03
1.024000000000000000e+03 6.754607468879673434e+03
1.025000000000000000e+03 6.098285991701214698e+03
1.026000000000000000e+03 5.628345792531130428e+03
1.027000000000000000e+03 5.296273195020762614e+03
1.028000000000000000e+03 5.025737341614900288e+03
1.029000000000000000e+03 4.709058304979219429e+03
1.030000000000000000e+03 4.457984271784246630e+03
1.031000000000000000e+03 4.237888510373448298e+03
1.032000000000000000e+03 3.927779506224048419e+03
1.033000000000000000e+03 3.646960547717879763e+03
1.034000000000000000e+03 3.276641493775944582e+03
1.035000000000000000e+03 3.003277385892109123e+03
1.036000000000000000e+03 2.641211304347822079e+03
1.037000000000000000e+03 2.364585931535283180e+03
1.038000000000000000e+03 2.103799500000000080e+03
1.039000000000000000e+03 1.858449968879656126e+03
1.040000000000000000e+03 1.670940377593365838e+03
1.041000000000000000e+03 1.489245294605813569e+03
1.042000000000000000e+03 1.305119406638998043e+03
1.043000000000000000e+03 1.171536365145216223e+03
1.044000000000000000e+03 1.063411319502081824e+03
1.045000000000000000e+03 9.548602979253096237e+02
1.046000000000000000e+03 8.537647016597445599e+02
1.047000000000000000e+03 7.776167657676406861e+02
1.048000000000000000e+03 7.120788983402511576e+02
1.049000000000000000e+03 6.358759074688749706e+02
1.050000000000000000e+03 5.717403103734436627e+02
1.051000000000000000e+03 5.319905477178472211e+02
1.052000000000000000e+03 4.367701311203315981e+02
1.053000000000000000e+03 4.248632569358168780e+02
1.054000000000000000e+03 3.591451560166034938e+02
1.055000000000000000e+03 3.150734172199174736e+02
1.056000000000000000e+03 2.777256172199150228e+02
1.057000000000000000e+03 2.733565329192533113e+02
1.058000000000000000e+03 2.625331323651465709e+02
1.059000000000000000e+03 2.063782095435672943e+02
1.060000000000000000e+03 1.621832867219903562e+02
1.061000000000000000e+03 1.472229892116191365e+02
1.062000000000000000e+03 1.304555244813278136e+02
1.063000000000000000e+03 1.059714236514516585e+02
1.064000000000000000e+03 1.160254257261413784e+02
1.065000000000000000e+03 1.009247249689452133e+02
1.066000000000000000e+03 8.407614531120321999e+01
1.067000000000000000e+03 8.252261979253108848e+01
1.068000000000000000e+03 6.221596593361307015e+01
1.069000000000000000e+03 3.986332033195012059e+01
1.070000000000000000e+03 6.728232114108010364e+01
1.071000000000000000e+03 4.563292717842475099e+01
1.072000000000000000e+03 4.655316854771846380e+01
1.073000000000000000e+03 2.212402190476145591e+01
1.074000000000000000e+03 1.773554012448155248e+01
1.075000000000000000e+03 1.563043012448181912e+01
1.076000000000000000e+03 4.504755302904528413e+00
1.077000000000000000e+03 3.626504659751698334e+00
1.078000000000000000e+03 5.847525879669031923e+00
1.079000000000000000e+03 1.869891047717819887e+01
1.080000000000000000e+03 2.018334097510340186e+01
1.081000000000000000e+03 6.131383562239382634e+00
1.082000000000000000e+03 1.408559006211068443e+00
1.083000000000000000e+03 6.524575601658797464e-01
1.084000000000000000e+03 2.267143656016835251e+01
1.085000000000000000e+03 1.625712921162077151e+01
1.086000000000000000e+03 1.630461560165970880e+01
1.087000000000000000e+03 2.309807487551734795e+01
1.088000000000000000e+03 3.706953543568163312e+00
1.089000000000000000e+03 3.653705987551837620e+00
1.090000000000000000e+03 1.342633692946087365e+01
1.091000000000000000e+03 1.981769145228344797e+01
1.092000000000000000e+03 3.821445663900341572e+01
1.093000000000000000e+03 2.432448356846501980e+01
1.094000000000000000e+03 4.686598455486245207e+00
1.095000000000000000e+03 1.043618747925306600e+01
1.096000000000000000e+03 1.148985101659750185e+01
1.097000000000000000e+03 1.547060392116204852e+01
1.098000000000000000e+03 1.840582763975094949e+01
1.099000000000000000e+03 4.590834149376579632e+00
1.100000000000000000e+03 1.601407904564308993e+01
1.101000000000000000e+03 1.274302709544415935e+00
1.102000000000000000e+03 8.018348819876928602e+00
1.103000000000000000e+03 1.419726634854735892e+01
1.104000000000000000e+03 6.290409943982780305e+00
1.105000000000000000e+03 9.146598786306929796e+00
1.106000000000000000e+03 1.234474543153671000e+01
1.107000000000000000e+03 2.683573804979358268e+00
1.108000000000000000e+03 3.046589995850820909e+00
1.109000000000000000e+03 1.455068730290359014e+01
1.110000000000000000e+03 2.228112556016576562e+01
1.111000000000000000e+03 3.052292661825756070e+01
1.112000000000000000e+03 2.015985883817569402e+01
1.113000000000000000e+03 2.134182423236483217e+01
1.114000000000000000e+03 3.110439734989651939e+01
1.115000000000000000e+03 2.333162066389958866e+01
1.116000000000000000e+03 1.162574294605821379e+01
1.117000000000000000e+03 2.550043796680460417e+01
1.118000000000000000e+03 3.378143688796462385e+01
1.119000000000000000e+03 6.927795732364516290e+00
1.120000000000000000e+03 2.471873296680458054e+01
1.121000000000000000e+03 2.486653192946048918e+01
1.122000000000000000e+03 2.239341473029033125e+01
1.123000000000000000e+03 2.443954565217374864e+01
1.124000000000000000e+03 2.569035095435684823e+01
1.125000000000000000e+03 1.017730821576616940e+01
1.126000000000000000e+03 1.141897738589008782e+01
1.127000000000000000e+03 2.456455668049791186e+01
1.128000000000000000e+03 2.356894504149357772e+01
1.129000000000000000e+03 1.936798914937743987e+01
1.130000000000000000e+03 1.842307431535245499e+01
1.131000000000000000e+03 2.586333523809530632e+01
1.132000000000000000e+03 3.803348946058100211e+01
1.133000000000000000e+03 1.334480995020945215e+01
1.134000000000000000e+03 1.378097074688765034e+01
1.135000000000000000e+03 1.396916195020726015e+01
1.136000000000000000e+03 1.999516292531044215e+01
1.137000000000000000e+03 1.150682610995998445e+01
1.138000000000000000e+03 9.991519429460785418e+00
1.139000000000000000e+03 2.285877107883771231e+01
1.140000000000000000e+03 2.672438336099271172e+00
1.141000000000000000e+03 1.422509244813267060e+01
1.142000000000000000e+03 1.821525601659726235e+01
1.143000000000000000e+03 1.096117463768077727e+01
1.144000000000000000e+03 3.041466761411100617e+00
1.145000000000000000e+03 6.306847821576882396e+00
1.146000000000000000e+03 7.837607759338170332e+00
1.147000000000000000e+03 1.245594874273974639e+01
1.148000000000000000e+03 4.648772381742730886e+00
1.149000000000000000e+03 1.055577590041581537e+01
1.150000000000000000e+03 1.171581240663988055e+01
1.151000000000000000e+03 8.269147215766995629e+00
1.152000000000000000e+03 5.854513478260777504e+00
1.153000000000000000e+03 5.942671350621930415e+00
1.154000000000000000e+03 1.352018267634934290e+01
1.155000000000000000e+03 9.319118443983313682e+00
1.156000000000000000e+03 4.160145228217749569e+00
1.157000000000000000e+03 1.859649037344376765e+01
1.158000000000000000e+03 1.956977639004150049e+01
1.159000000000000000e+03 2.173532261410803201e+01
1.160000000000000000e+03 2.409880927536233131e+01
1.161000000000000000e+03 2.356899813278009859e+01
1.162000000000000000e+03 2.300307018672198112e+01
1.163000000000000000e+03 2.339793192946076417e+01
1.164000000000000000e+03 2.804050348547705696e+01
1.165000000000000000e+03 1.355350248962675508e+01
1.166000000000000000e+03 1.257454622406657485e+01
1.167000000000000000e+03 2.119122717842395431e+01
1.168000000000000000e+03 2.747952884057960432e+01
1.169000000000000000e+03 2.150924410788366359e+01
1.170000000000000000e+03 3.471595709543926489e+01
1.171000000000000000e+03 5.029608446058255566e+01
1.172000000000000000e+03 3.590946975155278409e+01
1.173000000000000000e+03 3.567852224066335509e+01
1.174000000000000000e+03 3.027736190871364386e+01
1.175000000000000000e+03 4.325890145228187578e+01
1.176000000000000000e+03 3.718948634854758239e+01
1.177000000000000000e+03 3.920820614107937274e+01
1.178000000000000000e+03 4.324067657676326348e+01
1.179000000000000000e+03 4.244863215767637143e+01
1.180000000000000000e+03 5.662597226141173934e+01
1.181000000000000000e+03 6.297123414937836827e+01
1.182000000000000000e+03 5.731320244813272780e+01
1.183000000000000000e+03 6.776080257261503448e+01
1.184000000000000000e+03 8.019038999999828832e+01
1.185000000000000000e+03 6.505295705394159711e+01
1.186000000000000000e+03 7.324217609958506614e+01
1.187000000000000000e+03 6.249011883817346558e+01
1.188000000000000000e+03 5.527464261410792545e+01
1.189000000000000000e+03 5.751905204968931429e+01
1.190000000000000000e+03 7.276901273858997854e+01
1.191000000000000000e+03 6.501963157676109972e+01
1.192000000000000000e+03 6.702992058091193428e+01
1.193000000000000000e+03 8.210381999999999891e+01
1.194000000000000000e+03 6.621142589211243035e+01
1.195000000000000000e+03 4.044012632779846683e+01
1.196000000000000000e+03 6.077500099585059701e+01
1.197000000000000000e+03 6.070744173913051611e+01
1.198000000000000000e+03 6.063102369294575311e+01
1.199000000000000000e+03 5.236547780082998571e+01
1.200000000000000000e+03 6.088815804979268620e+01
1.201000000000000000e+03 6.725871888198778947e+01
1.202000000000000000e+03 6.251911209543625603e+01
1.203000000000000000e+03 5.594045912863073511e+01
1.204000000000000000e+03 7.181900085062417816e+01
1.205000000000000000e+03 8.333842195020754673e+01
1.206000000000000000e+03 7.123168377593408707e+01
1.207000000000000000e+03 6.535529186722035888e+01
1.208000000000000000e+03 7.002002112032901948e+01
1.209000000000000000e+03 4.078985622406555223e+01
1.210000000000000000e+03 5.555234201244817882e+01
1.211000000000000000e+03 5.803011502074735262e+01
1.212000000000000000e+03 6.740884798755134000e+01
1.213000000000000000e+03 5.963546634854810691e+01
1.214000000000000000e+03 5.922307842323662896e+01
1.215000000000000000e+03 4.246319800829979130e+01
1.216000000000000000e+03 2.909876618257277769e+01
1.217000000000000000e+03 4.038113240663898296e+01
1.218000000000000000e+03 5.238029205394227716e+01
1.219000000000000000e+03 4.650767562240751118e+01
1.220000000000000000e+03 3.918349560165957257e+01
1.221000000000000000e+03 4.714210049792573187e+01
1.222000000000000000e+03 5.226059971014412753e+01
1.223000000000000000e+03 3.448170601659888490e+01
1.224000000000000000e+03 1.173358431535278967e+01
1.225000000000000000e+03 4.015161165975279545e+01
1.226000000000000000e+03 3.673084453416267081e+01
1.227000000000000000e+03 3.311078622406635219e+01
1.228000000000000000e+03 3.688724470954370815e+01
1.229000000000000000e+03 3.296049819502114531e+01
1.230000000000000000e+03 3.468480238095195034e+01
1.231000000000000000e+03 4.121538970954360082e+01
1.232000000000000000e+03 3.850247518672173896e+01
1.233000000000000000e+03 3.749897427385894844e+01
1.234000000000000000e+03 4.129185240165602266e+01
1.235000000000000000e+03 5.830018719917077163e+01
1.236000000000000000e+03 6.260243578838277756e+01
1.237000000000000000e+03 4.919698248962703246e+01
1.238000000000000000e+03 4.219902741200840524e+01
1.239000000000000000e+03 5.527887319502089269e+01
1.240000000000000000e+03 5.041062020746987571e+01
1.241000000000000000e+03 4.738261717842322440e+01
1.242000000000000000e+03 4.834532099378839121e+01
1.243000000000000000e+03 6.317830161825461488e+01
1.244000000000000000e+03 7.357102441908743629e+01
1.245000000000000000e+03 6.294022821576767512e+01
1.246000000000000000e+03 6.909000329875532032e+01
1.247000000000000000e+03 6.292377377593282972e+01
1.248000000000000000e+03 7.426828294605780911e+01
1.249000000000000000e+03 4.982067215767512636e+01
1.250000000000000000e+03 3.798231676348608943e+01
1.251000000000000000e+03 3.381087508298744382e+01
1.252000000000000000e+03 5.713003529045789719e+01
1.253000000000000000e+03 7.716980473029055076e+01
1.254000000000000000e+03 7.647230632780139103e+01
1.255000000000000000e+03 5.994508651452217407e+01
1.256000000000000000e+03 4.903112738589196340e+01
1.257000000000000000e+03 5.364429726141005261e+01
1.258000000000000000e+03 5.827520161825727740e+01
1.259000000000000000e+03 5.701356757763981875e+01
1.260000000000000000e+03 6.385781062240577910e+01
1.261000000000000000e+03 7.265854369294633841e+01
1.262000000000000000e+03 6.380497454356826381e+01
1.263000000000000000e+03 5.337791801242182999e+01
1.264000000000000000e+03 3.968301452282245378e+01
1.265000000000000000e+03 2.981290618257261116e+01
1.266000000000000000e+03 5.231193875518778214e+01
1.267000000000000000e+03 4.000035105590006168e+01
1.268000000000000000e+03 3.725252782157628673e+01
1.269000000000000000e+03 4.933671248962676259e+01
1.270000000000000000e+03 4.275557968879490289e+01
1.271000000000000000e+03 2.722191430641890619e+01
1.272000000000000000e+03 1.909145344398333322e+01
1.273000000000000000e+03 1.966644186722021814e+01
1.274000000000000000e+03 2.728984302904536108e+01
1.275000000000000000e+03 2.951890443064180403e+01
1.276000000000000000e+03 2.854668748962613734e+01
1.277000000000000000e+03 2.255122885892164675e+01
1.278000000000000000e+03 3.526237192946040011e+01
1.279000000000000000e+03 2.486847002074681967e+01
1.280000000000000000e+03 9.274206464729418897e+00
1.281000000000000000e+03 1.581814099584960509e+01
1.282000000000000000e+03 6.144550228216234977e+00
1.283000000000000000e+03 6.318034145228994092e+00
1.284000000000000000e+03 9.406016599585484528e+00
1.285000000000000000e+03 5.145843701244682933e+00
1.286000000000000000e+03 1.606843009751066731e+01
1.287000000000000000e+03 1.928794128630634575e+01
1.288000000000000000e+03 2.862723759335850993e+00
1.289000000000000000e+03 3.088867929460600514e+00
1.290000000000000000e+03 7.358416564316152986e+00
1.291000000000000000e+03 1.750938468879638066e+01
1.292000000000000000e+03 5.943948407867998718e+00
1.293000000000000000e+03 6.759669813277535688e-01
1.294000000000000000e+03 1.537912340249117271e+01
1.295000000000000000e+03 1.972818165975137106e+01
1.296000000000000000e+03 1.032708063975152157e+01
1.297000000000000000e+03 1.116555070539240635e+00
1.298000000000000000e+03 6.143863439833400442e+00
1.299000000000000000e+03 1.210147244813275869e+01
1.300000000000000000e+03 1.498579118012446365e+01
1.301000000000000000e+03 2.051563804979298666e+01
1.302000000000000000e+03 1.947658450207558545e+01
1.303000000000000000e+03 6.978195371369283251e+00
1.304000000000000000e+03 3.418917971013857304e+00
1.305000000000000000e+03 0.000000000000000000e+00
1.306000000000000000e+03 0.000000000000000000e+00
1.307000000000000000e+03 0.000000000000000000e+00
1.308000000000000000e+03 0.000000000000000000e+00
1.309000000000000000e+03 0.000000000000000000e+00
1.310000000000000000e+03 0.000000000000000000e+00
1.311000000000000000e+03 0.000000000000000000e+00
1.312000000000000000e+03 0.000000000000000000e+00
1.313000000000000000e+03 0.000000000000000000e+00
1.314000000000000000e+03 0.000000000000000000e+00
1.315000000000000000e+03 0.000000000000000000e+00
1.316000000000000000e+03 0.000000000000000000e+00
1.317000000000000000e+03 0.000000000000000000e+00
1.318000000000000000e+03 0.000000000000000000e+00
1.319000000000000000e+03 0.000000000000000000e+00
1.320000000000000000e+03 0.000000000000000000e+00
1.321000000000000000e+03 0.000000000000000000e+00
1.322000000000000000e+03 0.000000000000000000e+00
1.323000000000000000e+03 0.000000000000000000e+00
1.324000000000000000e+03 0.000000000000000000e+00
1.325000000000000000e+03 0.000000000000000000e+00
1.326000000000000000e+03 0.000000000000000000e+00
1.327000000000000000e+03 0.000000000000000000e+00
1.328000000000000000e+03 0.000000000000000000e+00
1.329000000000000000e+03 0.000000000000000000e+00
1.330000000000000000e+03 0.000000000000000000e+00
1.331000000000000000e+03 0.000000000000000000e+00
1.332000000000000000e+03 0.000000000000000000e+00
1.333000000000000000e+03 0.000000000000000000e+00
1.334000000000000000e+03 0.000000000000000000e+00
1.335000000000000000e+03 0.000000000000000000e+00
1.336000000000000000e+03 0.000000000000000000e+00
1.337000000000000000e+03 0.000000000000000000e+00
1.338000000000000000e+03 0.000000000000000000e+00
1.339000000000000000e+03 0.000000000000000000e+00
1.340000000000000000e+03 0.000000000000000000e+00
1.341000000000000000e+03 0.000000000000000000e+00
1.342000000000000000e+03 0.000000000000000000e+00
1.343000000000000000e+03 0.000000000000000000e+00
1.344000000000000000e+03 0.000000000000000000e+00
1.345000000000000000e+03 0.000000000000000000e+00
1.346000000000000000e+03 0.000000000000000000e+00
1.347000000000000000e+03 0.000000000000000000e+00
1.348000000000000000e+03 0.000000000000000000e+00
1.349000000000000000e+03 0.000000000000000000e+00
1.350000000000000000e+03 0.000000000000000000e+00
1.351000000000000000e+03 0.000000000000000000e+00
1.352000000000000000e+03 0.000000000000000000e+00
1.353000000000000000e+03 0.000000000000000000e+00
1.354000000000000000e+03 0.000000000000000000e+00
1.355000000000000000e+03 0.000000000000000000e+00
1.356000000000000000e+03 0.000000000000000000e+00
1.357000000000000000e+03 0.000000000000000000e+00
1.358000000000000000e+03 0.000000000000000000e+00
1.359000000000000000e+03 0.000000000000000000e+00
1.360000000000000000e+03 0.000000000000000000e+00
1.361000000000000000e+03 0.000000000000000000e+00
1.362000000000000000e+03 0.000000000000000000e+00
1.363000000000000000e+03 0.000000000000000000e+00
1.364000000000000000e+03 0.000000000000000000e+00
1.365000000000000000e+03 0.000000000000000000e+00
1.366000000000000000e+03 0.000000000000000000e+00
1.367000000000000000e+03 0.000000000000000000e+00
1.368000000000000000e+03 0.000000000000000000e+00
1.369000000000000000e+03 0.000000000000000000e+00
1.370000000000000000e+03 0.000000000000000000e+00
1.371000000000000000e+03 0.000000000000000000e+00
1.372000000000000000e+03 0.000000000000000000e+00
1.373000000000000000e+03 0.000000000000000000e+00
1.374000000000000000e+03 0.000000000000000000e+00
1.375000000000000000e+03 0.000000000000000000e+00
1.376000000000000000e+03 0.000000000000000000e+00
1.377000000000000000e+03 0.000000000000000000e+00
1.378000000000000000e+03 0.000000000000000000e+00
1.379000000000000000e+03 0.000000000000000000e+00
1.380000000000000000e+03 0.000000000000000000e+00
1.381000000000000000e+03 0.000000000000000000e+00
1.382000000000000000e+03 0.000000000000000000e+00
1.383000000000000000e+03 0.000000000000000000e+00
1.384000000000000000e+03 0.000000000000000000e+00
1.385000000000000000e+03 0.000000000000000000e+00
1.386000000000000000e+03 0.000000000000000000e+00
1.387000000000000000e+03 0.000000000000000000e+00
1.388000000000000000e+03 0.000000000000000000e+00
1.389000000000000000e+03 0.000000000000000000e+00
1.390000000000000000e+03 0.000000000000000000e+00
1.391000000000000000e+03 0.000000000000000000e+00
1.392000000000000000e+03 0.000000000000000000e+00
1.393000000000000000e+03 0.000000000000000000e+00
1.394000000000000000e+03 0.000000000000000000e+00
1.395000000000000000e+03 0.000000000000000000e+00
1.396000000000000000e+03 0.000000000000000000e+00
1.397000000000000000e+03 0.000000000000000000e+00
1.398000000000000000e+03 0.000000000000000000e+00
1.399000000000000000e+03 0.000000000000000000e+00
1.400000000000000000e+03 0.000000000000000000e+00
1.401000000000000000e+03 0.000000000000000000e+00
1.402000000000000000e+03 0.000000000000000000e+00
1.403000000000000000e+03 0.000000000000000000e+00
1.404000000000000000e+03 0.000000000000000000e+00
1.405000000000000000e+03 0.000000000000000000e+00
1.406000000000000000e+03 0.000000000000000000e+00
1.407000000000000000e+03 0.000000000000000000e+00
1.408000000000000000e+03 0.000000000000000000e+00
1.409000000000000000e+03 0.000000000000000000e+00
1.410000000000000000e+03 0.000000000000000000e+00
1.411000000000000000e+03 0.000000000000000000e+00
1.412000000000000000e+03 0.000000000000000000e+00
1.413000000000000000e+03 0.000000000000000000e+00
1.414000000000000000e+03 0.000000000000000000e+00
1.415000000000000000e+03 0.000000000000000000e+00
1.416000000000000000e+03 0.000000000000000000e+00
1.417000000000000000e+03 0.000000000000000000e+00
1.418000000000000000e+03 0.000000000000000000e+00
1.419000000000000000e+03 0.000000000000000000e+00
1.420000000000000000e+03 0.000000000000000000e+00
1.421000000000000000e+03 0.000000000000000000e+00
1.422000000000000000e+03 0.000000000000000000e+00
1.423000000000000000e+03 0.000000000000000000e+00
1.424000000000000000e+03 0.000000000000000000e+00
1.425000000000000000e+03 0.000000000000000000e+00
1.426000000000000000e+03 0.000000000000000000e+00
1.427000000000000000e+03 0.000000000000000000e+00
1.428000000000000000e+03 0.000000000000000000e+00
1.429000000000000000e+03 0.000000000000000000e+00
1.430000000000000000e+03 0.000000000000000000e+00
1.431000000000000000e+03 0.000000000000000000e+00
1.432000000000000000e+03 0.000000000000000000e+00
1.433000000000000000e+03 0.000000000000000000e+00
1.434000000000000000e+03 0.000000000000000000e+00
1.435000000000000000e+03 0.000000000000000000e+00
1.436000000000000000e+03 0.000000000000000000e+00
1.437000000000000000e+03 0.000000000000000000e+00
1.438000000000000000e+03 0.000000000000000000e+00
1.439000000000000000e+03 0.000000000000000000e+00
1.440000000000000000e+03 0.000000000000000000e+00
1.441000000000000000e+03 0.000000000000000000e+00
1.442000000000000000e+03 0.000000000000000000e+00
1.443000000000000000e+03 0.000000000000000000e+00
1.444000000000000000e+03 0.000000000000000000e+00
1.445000000000000000e+03 0.000000000000000000e+00
1.446000000000000000e+03 0.000000000000000000e+00
1.447000000000000000e+03 0.000000000000000000e+00
1.448000000000000000e+03 0.000000000000000000e+00
1.449000000000000000e+03 0.000000000000000000e+00
1.450000000000000000e+03 0.000000000000000000e+00
1.451000000000000000e+03 0.000000000000000000e+00
1.452000000000000000e+03 0.000000000000000000e+00
1.453000000000000000e+03 0.000000000000000000e+00
1.454000000000000000e+03 0.000000000000000000e+00
1.455000000000000000e+03 0.000000000000000000e+00
1.456000000000000000e+03 0.000000000000000000e+00
1.457000000000000000e+03 0.000000000000000000e+00
1.458000000000000000e+03 0.000000000000000000e+00
1.459000000000000000e+03 0.000000000000000000e+00
1.460000000000000000e+03 0.000000000000000000e+00
1.461000000000000000e+03 0.000000000000000000e+00
1.462000000000000000e+03 0.000000000000000000e+00
1.463000000000000000e+03 0.000000000000000000e+00
1.464000000000000000e+03 0.000000000000000000e+00
1.465000000000000000e+03 0.000000000000000000e+00
1.466000000000000000e+03 0.000000000000000000e+00
1.467000000000000000e+03 0.000000000000000000e+00
1.468000000000000000e+03 0.000000000000000000e+00
1.469000000000000000e+03 0.000000000000000000e+00
1.470000000000000000e+03 0.000000000000000000e+00
1.471000000000000000e+03 0.000000000000000000e+00
1.472000000000000000e+03 0.000000000000000000e+00
1.473000000000000000e+03 0.000000000000000000e+00
1.474000000000000000e+03 0.000000000000000000e+00
1.475000000000000000e+03 0.000000000000000000e+00
1.476000000000000000e+03 0.000000000000000000e+00
1.477000000000000000e+03 0.000000000000000000e+00
1.478000000000000000e+03 0.000000000000000000e+00
1.479000000000000000e+03 0.000000000000000000e+00
1.480000000000000000e+03 0.000000000000000000e+00
1.481000000000000000e+03 0.000000000000000000e+00
1.482000000000000000e+03 0.000000000000000000e+00
1.483000000000000000e+03 0.000000000000000000e+00
1.484000000000000000e+03 0.000000000000000000e+00
1.485000000000000000e+03 0.000000000000000000e+00
1.486000000000000000e+03 0.000000000000000000e+00
1.487000000000000000e+03 0.000000000000000000e+00
1.488000000000000000e+03 0.000000000000000000e+00
1.489000000000000000e+03 0.000000000000000000e+00
1.490000000000000000e+03 0.000000000000000000e+00
1.491000000000000000e+03 0.000000000000000000e+00
1.492000000000000000e+03 0.000000000000000000e+00
1.493000000000000000e+03 0.000000000000000000e+00
1.494000000000000000e+03 0.000000000000000000e+00
1.495000000000000000e+03 0.000000000000000000e+00
1.496000000000000000e+03 0.000000000000000000e+00
1.497000000000000000e+03 0.000000000000000000e+00
1.498000000000000000e+03 0.000000000000000000e+00
1.499000000000000000e+03 0.000000000000000000e+00
1.500000000000000000e+03 0.000000000000000000e+00
