1.010000000000000000e+02 0.000000000000000000e+00
1.020000000000000000e+02 0.000000000000000000e+00
1.030000000000000000e+02 0.000000000000000000e+00
1.040000000000000000e+02 0.000000000000000000e+00
1.050000000000000000e+02 0.000000000000000000e+00
1.060000000000000000e+02 0.000000000000000000e+00
1.070000000000000000e+02 0.000000000000000000e+00
1.080000000000000000e+02 0.000000000000000000e+00
1.090000000000000000e+02 0.000000000000000000e+00
1.100000000000000000e+02 0.000000000000000000e+00
1.110000000000000000e+02 0.000000000000000000e+00
1.120000000000000000e+02 0.000000000000000000e+00
1.130000000000000000e+02 0.000000000000000000e+00
1.140000000000000000e+02 0.000000000000000000e+00
1.150000000000000000e+02 0.000000000000000000e+00
1.160000000000000000e+02 0.000000000000000000e+00
1.170000000000000000e+02 0.000000000000000000e+00
1.180000000000000000e+02 0.000000000000000000e+00
1.190000000000000000e+02 0.000000000000000000e+00
1.200000000000000000e+02 0.000000000000000000e+00
1.210000000000000000e+02 0.000000000000000000e+00
1.220000000000000000e+02 0.000000000000000000e+00
1.230000000000000000e+02 0.000000000000000000e+00
1.240000000000000000e+02 0.000000000000000000e+00
1.250000000000000000e+02 0.000000000000000000e+00
1.260000000000000000e+02 0.000000000000000000e+00
1.270000000000000000e+02 0.000000000000000000e+00
1.280000000000000000e+02 0.000000000000000000e+00
1.290000000000000000e+02 0.000000000000000000e+00
1.300000000000000000e+02 0.000000000000000000e+00
1.310000000000000000e+02 0.000000000000000000e+00
1.320000000000000000e+02 0.000000000000000000e+00
1.330000000000000000e+02 0.000000000000000000e+00
1.340000000000000000e+02 0.000000000000000000e+00
1.350000000000000000e+02 0.000000000000000000e+00
1.360000000000000000e+02 0.000000000000000000e+00
1.370000000000000000e+02 0.000000000000000000e+00
1.380000000000000000e+02 0.000000000000000000e+00
1.390000000000000000e+02 0.000000000000000000e+00
1.400000000000000000e+02 0.000000000000000000e+00
1.410000000000000000e+02 0.000000000000000000e+00
1.420000000000000000e+02 0.000000000000000000e+00
1.430000000000000000e+02 3.771117763741979712e+00
1.440000000000000000e+02 3.857665775357784099e+00
1.450000000000000000e+02 1.043302114499064537e+01
1.460000000000000000e+02 5.030772357809677686e+00
1.470000000000000000e+02 3.578354026343063765e+00
1.480000000000000000e+02 2.446025948558373742e+00
1.490000000000000000e+02 7.914112003526231121e+00
1.500000000000000000e+02 8.531533415681408883e+00
1.510000000000000000e+02 1.266171832849443213e+01
1.520000000000000000e+02 1.208433642605269220e+01
1.530000000000000000e+02 8.094006366728878632e+00
1.540000000000000000e+02 1.397474176897553200e+01
1.550000000000000000e+02 1.566834872433106796e+01
1.560000000000000000e+02 1.191448761667710698e+01
1.570000000000000000e+02 1.324739032351725321e+01
1.580000000000000000e+02 1.466338892760836821e+01
1.590000000000000000e+02 9.151170658369558453e+00
1.600000000000000000e+02 1.730206057652429763e+01
1.610000000000000000e+02 9.946752151835745792e+00
1.620000000000000000e+02 1.597202336859571226e+01
1.630000000000000000e+02 1.902184140398194145e+01
1.640000000000000000e+02 1.566675297448661297e+01
1.650000000000000000e+02 1.640257741754821197e+01
1.660000000000000000e+02 1.073517070924927452e+01
1.670000000000000000e+02 1.405308834681595087e+01
1.680000000000000000e+02 1.176622617299307016e+01
1.690000000000000000e+02 5.507768210286245747e+00
1.700000000000000000e+02 1.400340664592407869e+01
1.710000000000000000e+02 3.972171191453966355e+00
1.720000000000000000e+02 1.277284102447100445e+00
1.730000000000000000e+02 4.460430980087075170e+00
1.740000000000000000e+02 7.843996007882179100e+00
1.750000000000000000e+02 1.692961061385310373e+01
1.760000000000000000e+02 5.651326758348648838e+00
1.770000000000000000e+02 3.498811283136236128e+00
1.780000000000000000e+02 3.200444474797752736e+00
1.790000000000000000e+02 1.234892547811659469e+01
1.800000000000000000e+02 3.633545499273941548e+00
1.810000000000000000e+02 9.163648542626004811e+00
1.820000000000000000e+02 5.817073812694443902e+00
1.830000000000000000e+02 9.029670483302144612e-01
1.840000000000000000e+02 6.868630854594612867e-01
1.850000000000000000e+02 6.241322853972322449e+00
1.860000000000000000e+02 1.434423457996269846e+01
1.870000000000000000e+02 1.437018318606099676e+01
1.880000000000000000e+02 1.349141073221428400e+00
1.890000000000000000e+02 7.762886300068635670e+00
1.900000000000000000e+02 1.338619997096029302e+01
1.910000000000000000e+02 7.314923820784087205e-01
1.920000000000000000e+02 4.655897334992747716e+00
1.930000000000000000e+02 1.426947151628270571e+00
1.940000000000000000e+02 6.901784764571720743e+00
1.950000000000000000e+02 1.195056268201619254e+01
1.960000000000000000e+02 1.385084573739888647e+01
1.970000000000000000e+02 9.922558380004195655e+00
1.980000000000000000e+02 1.060399268450535004e+01
1.990000000000000000e+02 1.608092406969510435e+01
2.000000000000000000e+02 2.362964099564403142e+01
2.010000000000000000e+02 4.053221840729969472e+01
2.020000000000000000e+02 4.268065770379584478e+01
2.030000000000000000e+02 4.830879540551767803e+01
2.040000000000000000e+02 6.282253419415062012e+01
2.050000000000000000e+02 5.004074842563784387e+01
2.060000000000000000e+02 6.053330746525605122e+01
2.070000000000000000e+02 7.236390997925744273e+01
2.080000000000000000e+02 7.504292964322755211e+01
2.090000000000000000e+02 7.993070273802111103e+01
2.100000000000000000e+02 9.995624491599257055e+01
2.110000000000000000e+02 1.251996395353663587e+02
2.120000000000000000e+02 1.507776809790501034e+02
2.130000000000000000e+02 1.818892059116363953e+02
2.140000000000000000e+02 2.344154023024262870e+02
2.150000000000000000e+02 3.101977722256801826e+02
2.160000000000000000e+02 3.923635426882392494e+02
2.170000000000000000e+02 4.812080940261354840e+02
2.180000000000000000e+02 5.983846477810029683e+02
2.190000000000000000e+02 6.858033620410714093e+02
2.200000000000000000e+02 7.971197561086921723e+02
2.210000000000000000e+02 9.131499202613024408e+02
2.220000000000000000e+02 9.982564811242472160e+02
2.230000000000000000e+02 1.151438920348473630e+03
2.240000000000000000e+02 1.263330635137938998e+03
2.250000000000000000e+02 1.351447240406555011e+03
2.260000000000000000e+02 1.389747843808338757e+03
2.270000000000000000e+02 1.224061080273804237e+03
2.280000000000000000e+02 9.076784031113838864e+02
2.290000000000000000e+02 6.307117684920129932e+02
2.300000000000000000e+02 4.576424975736209717e+02
2.310000000000000000e+02 3.536401907280651926e+02
2.320000000000000000e+02 3.235210695706283559e+02
2.330000000000000000e+02 3.180867901285773769e+02
2.340000000000000000e+02 3.223441048122796246e+02
2.350000000000000000e+02 3.446610048745070571e+02
2.360000000000000000e+02 4.176998460389879710e+02
2.370000000000000000e+02 4.767596128811454150e+02
2.380000000000000000e+02 5.399873867040035975e+02
2.390000000000000000e+02 6.176225864371625676e+02
2.400000000000000000e+02 6.972074906036083348e+02
2.410000000000000000e+02 7.686141497199758987e+02
2.420000000000000000e+02 8.621187647034429347e+02
2.430000000000000000e+02 9.716469224227334962e+02
2.440000000000000000e+02 1.082258631819123593e+03
2.450000000000000000e+02 1.198928934868285069e+03
2.460000000000000000e+02 1.200666808960796061e+03
2.470000000000000000e+02 1.059817678697365636e+03
2.480000000000000000e+02 8.099310385812094637e+02
2.490000000000000000e+02 5.604026485583908652e+02
2.500000000000000000e+02 3.954145053515856034e+02
2.510000000000000000e+02 2.891916799004355880e+02
2.520000000000000000e+02 2.158950566272560820e+02
2.530000000000000000e+02 1.611465313627883233e+02
2.540000000000000000e+02 1.193961787639982219e+02
2.550000000000000000e+02 9.599199370255128372e+01
2.560000000000000000e+02 8.469676918481644634e+01
2.570000000000000000e+02 7.579765327732806668e+01
2.580000000000000000e+02 5.873747452188317197e+01
2.590000000000000000e+02 3.589173278780324239e+01
2.600000000000000000e+02 2.453885902924700346e+01
2.610000000000000000e+02 2.504377444721021106e+01
2.620000000000000000e+02 2.951080139597601715e+01
2.630000000000000000e+02 3.424248236672895729e+01
2.640000000000000000e+02 1.641478724953321944e+01
2.650000000000000000e+02 5.768844624144525035e+00
2.660000000000000000e+02 1.685399010371274997e+01
2.670000000000000000e+02 3.057654629122569645e+01
2.680000000000000000e+02 2.968125461729945158e+01
2.690000000000000000e+02 2.769102687616677372e+01
2.700000000000000000e+02 3.255990928645501725e+01
2.710000000000000000e+02 4.180388811696397511e+01
2.720000000000000000e+02 3.565409736154323639e+01
2.730000000000000000e+02 3.593795601742375823e+01
2.740000000000000000e+02 5.119516671298216437e+01
2.750000000000000000e+02 7.100640499066588518e+01
2.760000000000000000e+02 7.130520623936945412e+01
2.770000000000000000e+02 8.066248398589816304e+01
2.780000000000000000e+02 9.581251158680808544e+01
2.790000000000000000e+02 1.158638206388719709e+02
2.800000000000000000e+02 1.368908040647032465e+02
2.810000000000000000e+02 1.491005834474171934e+02
2.820000000000000000e+02 1.821404430616065326e+02
2.830000000000000000e+02 2.019368081294068134e+02
2.840000000000000000e+02 2.117285882596965223e+02
2.850000000000000000e+02 2.472462378552161226e+02
2.860000000000000000e+02 2.705918523750258373e+02
2.870000000000000000e+02 3.070178912258863306e+02
2.880000000000000000e+02 3.572314385604638005e+02
2.890000000000000000e+02 4.066323656295376168e+02
2.900000000000000000e+02 4.360958114291640868e+02
2.910000000000000000e+02 4.856075238332292656e+02
2.920000000000000000e+02 5.274402234598635459e+02
2.930000000000000000e+02 5.541274277743209495e+02
2.940000000000000000e+02 5.755022877411325908e+02
2.950000000000000000e+02 5.730395985065337072e+02
2.960000000000000000e+02 5.630675016179213799e+02
2.970000000000000000e+02 5.554048038788632766e+02
2.980000000000000000e+02 5.459196182534749369e+02
2.990000000000000000e+02 5.159484115121331342e+02
3.000000000000000000e+02 4.568007476042300254e+02
3.010000000000000000e+02 3.797950837826622887e+02
3.020000000000000000e+02 3.029756164903562308e+02
3.030000000000000000e+02 2.425946488073015814e+02
3.040000000000000000e+02 2.023773325591038201e+02
3.050000000000000000e+02 1.689312729309276335e+02
3.060000000000000000e+02 1.341073329599675219e+02
3.070000000000000000e+02 1.045114597677313810e+02
3.080000000000000000e+02 8.914567318398680129e+01
3.090000000000000000e+02 7.424316078406987174e+01
3.100000000000000000e+02 4.806558157196161574e+01
3.110000000000000000e+02 3.341844475834891171e+01
3.120000000000000000e+02 3.770870316531840416e+01
3.130000000000000000e+02 3.447960553412159612e+01
3.140000000000000000e+02 3.988309745488493263e+01
3.150000000000000000e+02 3.675958306990243329e+01
3.160000000000000000e+02 2.726695670815167105e+01
3.170000000000000000e+02 2.122769465463582605e+01
3.180000000000000000e+02 1.446866316116980045e+01
3.190000000000000000e+02 1.591554719975101939e+01
3.200000000000000000e+02 6.728740134827466690e+00
3.210000000000000000e+02 3.943853974693960041e+00
3.220000000000000000e+02 1.090059032275443940e+01
3.230000000000000000e+02 1.114783783447425058e+01
3.240000000000000000e+02 2.555602056420067214e+00
3.250000000000000000e+02 4.656294487658166226e+00
3.260000000000000000e+02 7.880375598008836135e+00
3.270000000000000000e+02 4.809660844462799290e+00
3.280000000000000000e+02 7.773681626011176959e+00
3.290000000000000000e+02 9.612361883841492372e+00
3.300000000000000000e+02 2.240399227291575457e+01
3.310000000000000000e+02 8.337757577058543035e+00
3.320000000000000000e+02 1.734993705662724039e+00
3.330000000000000000e+02 8.103428666113785539e+00
3.340000000000000000e+02 9.236563116780649452e+00
3.350000000000000000e+02 7.622093082348090576e+00
3.360000000000000000e+02 1.311936868934047951e+01
3.370000000000000000e+02 6.428538579962912003e+00
3.380000000000000000e+02 1.987634140427488649e+00
3.390000000000000000e+02 9.937351355320368285e+00
3.400000000000000000e+02 1.594012798589503355e+01
3.410000000000000000e+02 1.432270132545127694e+01
3.420000000000000000e+02 7.005297764779120584e+00
3.430000000000000000e+02 1.263383572080466255e+00
3.440000000000000000e+02 1.511798870981147624e+00
3.450000000000000000e+02 1.825846819954332068e+00
3.460000000000000000e+02 9.113003981331672776e+00
3.470000000000000000e+02 8.020827141256891224e+00
3.480000000000000000e+02 9.608914640945691588e+00
3.490000000000000000e+02 1.970230959966818851e+00
3.500000000000000000e+02 9.474047491599268511e+00
3.510000000000000000e+02 5.475457702551224770e+00
3.520000000000000000e+02 1.827367808545969652e+01
3.530000000000000000e+02 2.536856824968888091e+01
3.540000000000000000e+02 1.821050634723110306e+01
3.550000000000000000e+02 1.179183261356567414e+01
3.560000000000000000e+02 1.722483795313157628e+01
3.570000000000000000e+02 3.573613051026723753e+01
3.580000000000000000e+02 3.337203539099836291e+01
3.590000000000000000e+02 1.589308367482367323e+01
3.600000000000000000e+02 3.002030776602352802e+01
3.610000000000000000e+02 3.215900485791333097e+01
3.620000000000000000e+02 2.929384312383328748e+01
3.630000000000000000e+02 3.091202208670400609e+01
3.640000000000000000e+02 3.890152074051022169e+01
3.650000000000000000e+02 5.006571066362502620e+01
3.660000000000000000e+02 4.463765259074898495e+01
3.670000000000000000e+02 5.975089601534952521e+01
3.680000000000000000e+02 5.200729367482378507e+01
3.690000000000000000e+02 5.600108004978216769e+01
3.700000000000000000e+02 6.073709857705846105e+01
3.710000000000000000e+02 6.463387185607628282e+01
3.720000000000000000e+02 6.917489282513987803e+01
3.730000000000000000e+02 7.442356621655271454e+01
3.740000000000000000e+02 7.819613572791369904e+01
3.750000000000000000e+02 8.287846282306563239e+01
3.760000000000000000e+02 8.885031496992307609e+01
3.770000000000000000e+02 9.643675306097051703e+01
3.780000000000000000e+02 1.016971089607964842e+02
3.790000000000000000e+02 9.958506603194345530e+01
3.800000000000000000e+02 1.087139527069072926e+02
3.810000000000000000e+02 1.153936887782617475e+02
3.820000000000000000e+02 1.290886928438081043e+02
3.830000000000000000e+02 1.445425118232731734e+02
3.840000000000000000e+02 1.438445443476457513e+02
3.850000000000000000e+02 1.710353701514208353e+02
3.860000000000000000e+02 2.026787297448667289e+02
3.870000000000000000e+02 2.246863884878657700e+02
3.880000000000000000e+02 2.464551221323379480e+02
3.890000000000000000e+02 2.857215176104548391e+02
3.900000000000000000e+02 2.990805144783241190e+02
3.910000000000000000e+02 3.047115063472309657e+02
3.920000000000000000e+02 3.355853939639066539e+02
3.930000000000000000e+02 3.964804093341620046e+02
3.940000000000000000e+02 4.490475559726266965e+02
3.950000000000000000e+02 5.189119328562529745e+02
3.960000000000000000e+02 5.970387302426868246e+02
3.970000000000000000e+02 6.794088218166725710e+02
3.980000000000000000e+02 7.733948081310927591e+02
3.990000000000000000e+02 8.944059757519175946e+02
4.000000000000000000e+02 1.012370294276234063e+03
4.010000000000000000e+02 1.139161861232110141e+03
4.020000000000000000e+02 1.278063710226094145e+03
4.030000000000000000e+02 1.429337418913316469e+03
4.040000000000000000e+02 1.598947315909564622e+03
4.050000000000000000e+02 1.764983797137524789e+03
4.060000000000000000e+02 1.912165152457999739e+03
4.070000000000000000e+02 2.042577215515456373e+03
4.080000000000000000e+02 2.161719102260943146e+03
4.090000000000000000e+02 2.238858179008503157e+03
4.100000000000000000e+02 2.287465520846296840e+03
4.110000000000000000e+02 2.280364244762496128e+03
4.120000000000000000e+02 2.205988369218005573e+03
4.130000000000000000e+02 2.057417520846300704e+03
4.140000000000000000e+02 1.808802306160553599e+03
4.150000000000000000e+02 1.552594549471064965e+03
4.160000000000000000e+02 1.310931731176106496e+03
4.170000000000000000e+02 1.094043820991498251e+03
4.180000000000000000e+02 9.120858169052054336e+02
4.190000000000000000e+02 7.535169156191660704e+02
4.200000000000000000e+02 6.256132530900043776e+02
4.210000000000000000e+02 5.318289159717890016e+02
4.220000000000000000e+02 4.639024630781990481e+02
4.230000000000000000e+02 4.090239066583694694e+02
4.240000000000000000e+02 3.604528085026955750e+02
4.250000000000000000e+02 3.190739690313205870e+02
4.260000000000000000e+02 2.687944595519593918e+02
4.270000000000000000e+02 2.274649099958525653e+02
4.280000000000000000e+02 2.172879678282509701e+02
4.290000000000000000e+02 1.857077633893376003e+02
4.300000000000000000e+02 1.596895500829533887e+02
4.310000000000000000e+02 1.445959165318401176e+02
4.320000000000000000e+02 1.313373421281896185e+02
4.330000000000000000e+02 1.122384269446173732e+02
4.340000000000000000e+02 1.057246213648621591e+02
4.350000000000000000e+02 9.753303501970559353e+01
4.360000000000000000e+02 9.490914248911015250e+01
4.370000000000000000e+02 9.192410275046677270e+01
4.380000000000000000e+02 7.694267690105802160e+01
4.390000000000000000e+02 6.299934890064290016e+01
4.400000000000000000e+02 5.376110739058283627e+01
4.410000000000000000e+02 4.833065588052271977e+01
4.420000000000000000e+02 4.920748927193539402e+01
4.430000000000000000e+02 5.589631537855223797e+01
4.440000000000000000e+02 5.683631907280646089e+01
4.450000000000000000e+02 4.407114678282474785e+01
4.460000000000000000e+02 5.082479466085913344e+01
4.470000000000000000e+02 5.786665812525887986e+01
4.480000000000000000e+02 3.282448663140480249e+01
4.490000000000000000e+02 1.262660146442660469e+01
4.500000000000000000e+02 2.237468271256763330e+01
4.510000000000000000e+02 3.054519360298695219e+01
4.520000000000000000e+02 2.477334646338954371e+01
4.530000000000000000e+02 1.864179314392363551e+01
4.540000000000000000e+02 2.945496847334577950e+01
4.550000000000000000e+02 1.029516415930311979e+01
4.560000000000000000e+02 1.031169070841966828e+01
4.570000000000000000e+02 3.048112263638285135e+00
4.580000000000000000e+02 4.568083469612112424e+00
4.590000000000000000e+02 9.785574287017922757e+00
4.600000000000000000e+02 3.839546003733615542e+00
4.610000000000000000e+02 7.692159568969169747e+00
4.620000000000000000e+02 8.426436838830349885e+00
4.630000000000000000e+02 9.935141372743650834e+00
4.640000000000000000e+02 7.195775639701384563e+00
4.650000000000000000e+02 5.993116032358771328e+00
4.660000000000000000e+02 5.283448445757990442e+00
4.670000000000000000e+02 8.029086701929323056e+00
4.680000000000000000e+02 2.098356922837564476e+00
4.690000000000000000e+02 4.619680127567064254e+00
4.700000000000000000e+02 9.089891733664794415e+00
4.710000000000000000e+02 9.067480272557505216e+00
4.720000000000000000e+02 1.131534430201210384e+01
4.730000000000000000e+02 9.961760265448259544e-01
4.740000000000000000e+02 1.352699765401368914e+01
4.750000000000000000e+02 9.289187786766232691e+00
4.760000000000000000e+02 2.467909542720865446e+01
4.770000000000000000e+02 3.453760465463587082e+01
4.780000000000000000e+02 2.896882897324202588e+01
4.790000000000000000e+02 3.030488921194543295e+01
4.800000000000000000e+02 4.778356967434181968e+01
4.810000000000000000e+02 4.764391752333529695e+01
4.820000000000000000e+02 6.640158872044753480e+01
4.830000000000000000e+02 8.742255701306787330e+01
4.840000000000000000e+02 7.600295809583060702e+01
4.850000000000000000e+02 9.429256821613812178e+01
4.860000000000000000e+02 8.993511328355134538e+01
4.870000000000000000e+02 1.030891932171741985e+02
4.880000000000000000e+02 1.338505447532136543e+02
4.890000000000000000e+02 1.588577230035261607e+02
4.900000000000000000e+02 1.656303084214891612e+02
4.910000000000000000e+02 1.833852134384071064e+02
4.920000000000000000e+02 1.983535793403858349e+02
4.930000000000000000e+02 2.126197233561501037e+02
4.940000000000000000e+02 2.378599448361677560e+02
4.950000000000000000e+02 2.693576683260736786e+02
4.960000000000000000e+02 2.772708138145613361e+02
4.970000000000000000e+02 2.950101715678146661e+02
4.980000000000000000e+02 3.142656295996683866e+02
4.990000000000000000e+02 3.223772405310102158e+02
5.000000000000000000e+02 3.225142884463807036e+02
5.010000000000000000e+02 3.089888500933413980e+02
5.020000000000000000e+02 3.119332431653184585e+02
5.030000000000000000e+02 2.988863677867667548e+02
5.040000000000000000e+02 2.803069049782199613e+02
5.050000000000000000e+02 2.885185157436218901e+02
5.060000000000000000e+02 2.644823671437463304e+02
5.070000000000000000e+02 2.289783554449288658e+02
5.080000000000000000e+02 2.119701676000829877e+02
5.090000000000000000e+02 1.963179291848163643e+02
5.100000000000000000e+02 1.623705526446796341e+02
5.110000000000000000e+02 1.401406614187929449e+02
5.120000000000000000e+02 1.133720134619384652e+02
5.130000000000000000e+02 1.188683907695489523e+02
5.140000000000000000e+02 1.134921137523345891e+02
5.150000000000000000e+02 8.016287584940936028e+01
5.160000000000000000e+02 6.540309287699683694e+01
5.170000000000000000e+02 5.582660082762920695e+01
5.180000000000000000e+02 6.434749380340073799e+01
5.190000000000000000e+02 7.249895734909769374e+01
5.200000000000000000e+02 6.646133435594289551e+01
5.210000000000000000e+02 4.907012574450430265e+01
5.220000000000000000e+02 3.443170303463998039e+01
5.230000000000000000e+02 2.967686408836340561e+01
5.240000000000000000e+02 1.727106057652366289e+01
5.250000000000000000e+02 7.011068422318921023e+00
5.260000000000000000e+02 1.458215741754845141e+01
5.270000000000000000e+02 1.777105302841732026e+01
5.280000000000000000e+02 1.635168523335390134e+01
5.290000000000000000e+02 1.037162599045822375e+01
5.300000000000000000e+02 1.155734018460861279e+01
5.310000000000000000e+02 1.860397715619174264e+01
5.320000000000000000e+02 1.445032306160534219e+01
5.330000000000000000e+02 1.026135850653399295e+01
5.340000000000000000e+02 2.441127245177469263e+00
5.350000000000000000e+02 1.201340323376860297e+01
5.360000000000000000e+02 1.533472355735317549e+01
5.370000000000000000e+02 8.727490244206204117e-01
5.380000000000000000e+02 9.531985746110802182e+00
5.390000000000000000e+02 3.362507607135229559e+00
5.400000000000000000e+02 1.131929900436010161e+00
5.410000000000000000e+02 9.770727386146687010e+00
5.420000000000000000e+02 2.049968364654887409e+00
5.430000000000000000e+02 9.706929265297539189e+00
5.440000000000000000e+02 2.094832203266354220e+00
5.450000000000000000e+02 1.256135288321936194e+01
5.460000000000000000e+02 6.079139146234871838e+00
5.470000000000000000e+02 1.038142212152663468e+01
5.480000000000000000e+02 1.618987933208882879e+01
5.490000000000000000e+02 3.498978394731357966e+00
5.500000000000000000e+02 1.076625425549425419e+00
5.510000000000000000e+02 3.771461949595517282e+00
5.520000000000000000e+02 3.892431115328781388e+00
5.530000000000000000e+02 9.224685007465993181e+00
5.540000000000000000e+02 1.117328985065347879e+01
5.550000000000000000e+02 1.833397316116994702e+01
5.560000000000000000e+02 2.889709660858754248e+01
5.570000000000000000e+02 1.567621429309226500e+01
5.580000000000000000e+02 1.085156555486414298e+01
5.590000000000000000e+02 8.453316043351936315e+00
5.600000000000000000e+02 4.949909883011780032e+00
5.610000000000000000e+02 5.218005947521245247e+00
5.620000000000000000e+02 1.506947971582670043e+01
5.630000000000000000e+02 2.115196730346403697e+01
5.640000000000000000e+02 2.319561578718108663e+01
5.650000000000000000e+02 1.760364602986937044e+01
5.660000000000000000e+02 2.386434997303455319e+00
5.670000000000000000e+02 3.928954179178679063e+00
5.680000000000000000e+02 9.445904712507768863e+00
5.690000000000000000e+02 1.339304891101425632e+01
5.700000000000000000e+02 2.724530284529240376e+01
5.710000000000000000e+02 2.551210100808961201e+01
5.720000000000000000e+02 3.504887288114488797e+01
5.730000000000000000e+02 4.195974667980090800e+01
5.740000000000000000e+02 4.884336295581826448e+01
5.750000000000000000e+02 5.577933630782005991e+01
5.760000000000000000e+02 3.490558656574042828e+01
5.770000000000000000e+02 3.447375969093545223e+01
5.780000000000000000e+02 4.562257074051004935e+01
5.790000000000000000e+02 6.244318182496884617e+01
5.800000000000000000e+02 6.994972298278366907e+01
5.810000000000000000e+02 5.845918870151398039e+01
5.820000000000000000e+02 7.714154589089397973e+01
5.830000000000000000e+02 7.302939898568753563e+01
5.840000000000000000e+02 7.152183067413405126e+01
5.850000000000000000e+02 8.785388497407154773e+01
5.860000000000000000e+02 1.045600226094172598e+02
5.870000000000000000e+02 9.783751654635973694e+01
5.880000000000000000e+02 1.177863886123207919e+02
5.890000000000000000e+02 1.395196744036502707e+02
5.900000000000000000e+02 1.633929210537224037e+02
5.910000000000000000e+02 1.795850123418377109e+02
5.920000000000000000e+02 1.818216417548224229e+02
5.930000000000000000e+02 2.020592080688646206e+02
5.940000000000000000e+02 2.118085934038577420e+02
5.950000000000000000e+02 2.403725484339340994e+02
5.960000000000000000e+02 2.736493487557025333e+02
5.970000000000000000e+02 3.047991018668327001e+02
5.980000000000000000e+02 3.425561939016802171e+02
5.990000000000000000e+02 3.706718428452916214e+02
6.000000000000000000e+02 3.827121419000210949e+02
6.010000000000000000e+02 4.257632815805865221e+02
6.020000000000000000e+02 4.781454250311063561e+02
6.030000000000000000e+02 5.116074234183766976e+02
6.040000000000000000e+02 5.587869708566666986e+02
6.050000000000000000e+02 6.087724367897124012e+02
6.060000000000000000e+02 6.391785776602356464e+02
6.070000000000000000e+02 6.705097699439934331e+02
6.080000000000000000e+02 7.265932940053911580e+02
6.090000000000000000e+02 7.876256302219459258e+02
6.100000000000000000e+02 7.745391670192904030e+02
6.110000000000000000e+02 7.984681932794024988e+02
6.120000000000000000e+02 7.940554692387472642e+02
6.130000000000000000e+02 7.580803722256796391e+02
6.140000000000000000e+02 7.078559990250975034e+02
6.150000000000000000e+02 6.546487944617292669e+02
6.160000000000000000e+02 6.245870436631397524e+02
6.170000000000000000e+02 5.362281130678239833e+02
6.180000000000000000e+02 4.680608035054950733e+02
6.190000000000000000e+02 4.269401167392641128e+02
6.200000000000000000e+02 3.823342280024911588e+02
6.210000000000000000e+02 3.365469912466321603e+02
6.220000000000000000e+02 2.863892959767712796e+02
6.230000000000000000e+02 2.580892557560676437e+02
6.240000000000000000e+02 2.564287538892343719e+02
6.250000000000000000e+02 2.440138527167164852e+02
6.260000000000000000e+02 2.063773902924705226e+02
6.270000000000000000e+02 2.025955140427298602e+02
6.280000000000000000e+02 1.749465342596433004e+02
6.290000000000000000e+02 1.490156840696948564e+02
6.300000000000000000e+02 1.525916422111597228e+02
6.310000000000000000e+02 1.655356619452510074e+02
6.320000000000000000e+02 1.596405540344324265e+02
6.330000000000000000e+02 1.485604366521464783e+02
6.340000000000000000e+02 1.316996669016996577e+02
6.350000000000000000e+02 1.340711897739062692e+02
6.360000000000000000e+02 1.410752416511098204e+02
6.370000000000000000e+02 1.415884265297657691e+02
6.380000000000000000e+02 1.390226523957684606e+02
6.390000000000000000e+02 1.423694491391829331e+02
6.400000000000000000e+02 1.487079001244556196e+02
6.410000000000000000e+02 1.489267530692657431e+02
6.420000000000000000e+02 1.410263991910394168e+02
6.430000000000000000e+02 1.342118818087533896e+02
6.440000000000000000e+02 1.384535299046041246e+02
6.450000000000000000e+02 1.514841666459241196e+02
6.460000000000000000e+02 1.588934448662103591e+02
6.470000000000000000e+02 1.679662888842806296e+02
6.480000000000000000e+02 1.834796405517532207e+02
6.490000000000000000e+02 2.011645201410497350e+02
6.500000000000000000e+02 2.113078107239164183e+02
6.510000000000000000e+02 2.171040739887990014e+02
6.520000000000000000e+02 2.124720573117612048e+02
6.530000000000000000e+02 2.238425592615641335e+02
6.540000000000000000e+02 2.213539013275255627e+02
6.550000000000000000e+02 2.251355766023646652e+02
6.560000000000000000e+02 2.292855511512132125e+02
6.570000000000000000e+02 2.357342919518772533e+02
6.580000000000000000e+02 2.496030806886538471e+02
6.590000000000000000e+02 2.489131963493051671e+02
6.600000000000000000e+02 2.350277431238332611e+02
6.610000000000000000e+02 2.348927495747770138e+02
6.620000000000000000e+02 2.373906742999376149e+02
6.630000000000000000e+02 2.215823278780335670e+02
6.640000000000000000e+02 2.104090104728328754e+02
6.650000000000000000e+02 2.038721093341630137e+02
6.660000000000000000e+02 1.994604353868492126e+02
6.670000000000000000e+02 1.981724688096225577e+02
6.680000000000000000e+02 1.975899831985065020e+02
6.690000000000000000e+02 1.801745889234598508e+02
6.700000000000000000e+02 1.696247666113645494e+02
6.710000000000000000e+02 1.598644453847749105e+02
6.720000000000000000e+02 1.456519144990668906e+02
6.730000000000000000e+02 1.227064254666113072e+02
6.740000000000000000e+02 1.044371993777225072e+02
6.750000000000000000e+02 1.072585717071147826e+02
6.760000000000000000e+02 9.447237545529971214e+01
6.770000000000000000e+02 9.830356956648014943e+01
6.780000000000000000e+02 1.085401512134412201e+02
6.790000000000000000e+02 1.007737818419415419e+02
6.800000000000000000e+02 7.702208563783460704e+01
6.810000000000000000e+02 7.550080002696523707e+01
6.820000000000000000e+02 8.442957417133369802e+01
6.830000000000000000e+02 7.911876851897967811e+01
6.840000000000000000e+02 6.841237486828474346e+01
6.850000000000000000e+02 6.134609476872027045e+01
6.860000000000000000e+02 5.289958933208887970e+01
6.870000000000000000e+02 5.793253050404460680e+01
6.880000000000000000e+02 6.613329994399491341e+01
6.890000000000000000e+02 6.125739887990058463e+01
6.900000000000000000e+02 5.826286591870582754e+01
6.910000000000000000e+02 6.159675261771414512e+01
6.920000000000000000e+02 5.578303767890474774e+01
6.930000000000000000e+02 4.564968440688532780e+01
6.940000000000000000e+02 3.791882674133974263e+01
6.950000000000000000e+02 4.293943524165109693e+01
6.960000000000000000e+02 3.442528603898783501e+01
6.970000000000000000e+02 3.139175226509036776e+01
6.980000000000000000e+02 2.859627795478178314e+01
6.990000000000000000e+02 2.981104089174620242e+01
7.000000000000000000e+02 2.805001595312197438e+01
7.010000000000000000e+02 2.832965100186659413e+01
7.020000000000000000e+02 2.457461074051019168e+01
7.030000000000000000e+02 1.759649360713543587e+01
7.040000000000000000e+02 2.151707931342060576e+01
7.050000000000000000e+02 1.908958761460278097e+01
7.060000000000000000e+02 1.531992365276913937e+01
7.070000000000000000e+02 1.464319323376892612e+01
7.080000000000000000e+02 1.185541254511498899e+01
7.090000000000000000e+02 5.650818915992365632e+00
7.100000000000000000e+02 9.010602675793601080e+00
7.110000000000000000e+02 7.529811397013498109e+00
7.120000000000000000e+02 2.604906636682303045e+00
7.130000000000000000e+02 2.667367129848123852e+00
7.140000000000000000e+02 4.961743808339234896e+00
7.150000000000000000e+02 7.749503851902059814e-01
7.160000000000000000e+02 8.506305766902382715e+00
7.170000000000000000e+02 1.943037029246648562e+00
7.180000000000000000e+02 7.963304893797960027e+00
7.190000000000000000e+02 1.165483596433000457e+01
7.200000000000000000e+02 6.101779920970807680e+00
7.210000000000000000e+02 5.756495575606582094e+00
7.220000000000000000e+02 6.656264727084201915e+00
7.230000000000000000e+02 4.675618606927846699e+00
7.240000000000000000e+02 5.329392624144212220e+00
7.250000000000000000e+02 9.844081766900281139e-01
7.260000000000000000e+02 2.025392570006257831e+00
7.270000000000000000e+02 1.653923792574093277e+00
7.280000000000000000e+02 8.337665253009571842e-01
7.290000000000000000e+02 5.471392227754409809e+00
7.300000000000000000e+02 2.802004495540334972e+01
7.310000000000000000e+02 1.630790847251665809e+01
7.320000000000000000e+02 2.209839257208252139e+00
7.330000000000000000e+02 5.119569683260289494e+00
7.340000000000000000e+02 1.145295304915995516e+01
7.350000000000000000e+02 1.246270452395758177e+01
7.360000000000000000e+02 1.621984771831583316e+01
7.370000000000000000e+02 3.940566201410507841e+00
7.380000000000000000e+02 3.471865777224687921e+00
7.390000000000000000e+02 7.168389442439328185e+00
7.400000000000000000e+02 1.864347480190539308e+00
7.410000000000000000e+02 2.383823231902081563e+00
7.420000000000000000e+02 1.646508670815188147e+00
7.430000000000000000e+02 8.883627821405831071e+00
7.440000000000000000e+02 1.157448727442499958e+01
7.450000000000000000e+02 2.122077446702601833e+01
7.460000000000000000e+02 7.278764813732019334e+00
7.470000000000000000e+02 3.988548662725495575e+00
7.480000000000000000e+02 1.570992904189189865e+01
7.490000000000000000e+02 1.140644326716541279e+01
7.500000000000000000e+02 7.860024799004500906e+00
7.510000000000000000e+02 1.180710591476663751e+01
7.520000000000000000e+02 8.968350292470473661e+00
7.530000000000000000e+02 1.744703170711471074e+01
7.540000000000000000e+02 1.038473002488583852e+01
7.550000000000000000e+02 2.408480572702775291e+01
7.560000000000000000e+02 2.291515961294260961e+01
7.570000000000000000e+02 7.986970623522354096e+00
7.580000000000000000e+02 2.353585198299134618e+01
7.590000000000000000e+02 1.857660860070486919e+01
7.600000000000000000e+02 6.750756778676928249e+00
7.610000000000000000e+02 1.606628098319860598e+01
7.620000000000000000e+02 1.885079673096871389e+01
7.630000000000000000e+02 2.096541591785936376e+01
7.640000000000000000e+02 3.862412605476211347e+00
7.650000000000000000e+02 5.601424279402729134e+00
7.660000000000000000e+02 2.061946231279813446e+01
7.670000000000000000e+02 2.275920619581007998e+01
7.680000000000000000e+02 9.203910976975791414e+00
7.690000000000000000e+02 1.091395471997509148e+01
7.700000000000000000e+02 7.602009941505926349e+00
7.710000000000000000e+02 1.307947669155776360e+01
7.720000000000000000e+02 5.177751557145735539e+00
7.730000000000000000e+02 4.906567372329541321e+00
7.740000000000000000e+02 2.837268032980706067e+01
7.750000000000000000e+02 2.925431992947526183e+01
7.760000000000000000e+02 2.342089651317153454e+01
7.770000000000000000e+02 7.140342400746886753e+00
7.780000000000000000e+02 4.010336543248177676e+00
7.790000000000000000e+02 4.648496482265104923e+00
7.800000000000000000e+02 5.604443179423274302e+00
7.810000000000000000e+02 1.792022352831330068e+01
7.820000000000000000e+02 3.526033149139173872e+01
7.830000000000000000e+02 2.759213879278156156e+01
7.840000000000000000e+02 3.645214274574846058e+01
7.850000000000000000e+02 3.646258623936932963e+01
7.860000000000000000e+02 2.577549133582236252e+01
7.870000000000000000e+02 1.842627107839078349e+01
7.880000000000000000e+02 2.324935759800839463e+01
7.890000000000000000e+02 4.767396552582400204e+01
7.900000000000000000e+02 5.489341605765233112e+01
7.910000000000000000e+02 6.662626141464397733e+01
7.920000000000000000e+02 6.709880128811479949e+01
7.930000000000000000e+02 5.947788856076326169e+01
7.940000000000000000e+02 6.628261999377684788e+01
7.950000000000000000e+02 8.625235039410861759e+01
7.960000000000000000e+02 7.539485778929922333e+01
7.970000000000000000e+02 9.694405986309860168e+01
7.980000000000000000e+02 1.026095207322133831e+02
7.990000000000000000e+02 9.377703806056831581e+01
8.000000000000000000e+02 8.932702013067829228e+01
8.010000000000000000e+02 9.424953326073429594e+01
8.020000000000000000e+02 1.039805851897950504e+02
8.030000000000000000e+02 1.216871678904795004e+02
8.040000000000000000e+02 1.265878298693216948e+02
8.050000000000000000e+02 1.268287953536610360e+02
8.060000000000000000e+02 1.229912481642816289e+02
8.070000000000000000e+02 1.239708699647380143e+02
8.080000000000000000e+02 1.417616105372323716e+02
8.090000000000000000e+02 1.562615228790701849e+02
8.100000000000000000e+02 1.650896467440896913e+02
8.110000000000000000e+02 1.585884514001246544e+02
8.120000000000000000e+02 1.515998769549885878e+02
8.130000000000000000e+02 1.621257292617165717e+02
8.140000000000000000e+02 1.793243708774113259e+02
8.150000000000000000e+02 1.771270655880522895e+02
8.160000000000000000e+02 1.737341585234343029e+02
8.170000000000000000e+02 1.890235340385814595e+02
8.180000000000000000e+02 1.814931957477699029e+02
8.190000000000000000e+02 1.803326410410621179e+02
8.200000000000000000e+02 1.890501678282517446e+02
8.210000000000000000e+02 1.828498415473961529e+02
8.220000000000000000e+02 1.605007794691004506e+02
8.230000000000000000e+02 1.762735352209074904e+02
8.240000000000000000e+02 1.895132739265714861e+02
8.250000000000000000e+02 1.902034050404482741e+02
8.260000000000000000e+02 1.733034521883433285e+02
8.270000000000000000e+02 1.654217250155564614e+02
8.280000000000000000e+02 1.747725752540966369e+02
8.290000000000000000e+02 1.730489672682016931e+02
8.300000000000000000e+02 1.653538204729309768e+02
8.310000000000000000e+02 1.664276956855424032e+02
8.320000000000000000e+02 1.570629764779093307e+02
8.330000000000000000e+02 1.639395378967019212e+02
8.340000000000000000e+02 1.490952570006225812e+02
8.350000000000000000e+02 1.407192358017005631e+02
8.360000000000000000e+02 1.325883723708763853e+02
8.370000000000000000e+02 1.378205270483304901e+02
8.380000000000000000e+02 1.333453423771001098e+02
8.390000000000000000e+02 1.341899831190377483e+02
8.400000000000000000e+02 1.309979290811038197e+02
8.410000000000000000e+02 1.209257076954983887e+02
8.420000000000000000e+02 1.001285594525079290e+02
8.430000000000000000e+02 7.649672512756689002e+01
8.440000000000000000e+02 9.131187999170273883e+01
8.450000000000000000e+02 9.213687129821653343e+01
8.460000000000000000e+02 6.804582747562730560e+01
8.470000000000000000e+02 4.221555798382070179e+01
8.480000000000000000e+02 4.526293364786451434e+01
8.490000000000000000e+02 6.249141887782644034e+01
8.500000000000000000e+02 5.993008410080886250e+01
8.510000000000000000e+02 5.408328348475411218e+01
8.520000000000000000e+02 5.168241551337864337e+01
8.530000000000000000e+02 3.785427738643414131e+01
8.540000000000000000e+02 4.591792223397694528e+01
8.550000000000000000e+02 3.701711805641875230e+01
8.560000000000000000e+02 2.674036015557001988e+01
8.570000000000000000e+02 4.877433993777232502e+01
8.580000000000000000e+02 2.815822869944050666e+01
8.590000000000000000e+02 1.042849586019488051e+01
8.600000000000000000e+02 3.455873085459445804e+01
8.610000000000000000e+02 3.204310526446798946e+01
8.620000000000000000e+02 2.697929602364652268e+01
8.630000000000000000e+02 3.087195334163037330e+01
8.640000000000000000e+02 2.680526664799831593e+01
8.650000000000000000e+02 2.183678457486505664e+01
8.660000000000000000e+02 4.334784097075152332e+00
8.670000000000000000e+02 5.230028939639209895e+00
8.680000000000000000e+02 2.884504885109936012e+01
8.690000000000000000e+02 3.137738234183747466e+01
8.700000000000000000e+02 2.069222895457374634e+01
8.710000000000000000e+02 1.767115944214009460e+01
8.720000000000000000e+02 1.007684245841107895e+01
8.730000000000000000e+02 1.227230510889858195e+01
8.740000000000000000e+02 1.801288497718796577e+01
8.750000000000000000e+02 2.320594490354694983e+01
8.760000000000000000e+02 1.439678656295376058e+01
8.770000000000000000e+02 1.446338089607988664e+01
8.780000000000000000e+02 2.718526326073430965e+01
8.790000000000000000e+02 2.619112859987561137e+01
8.800000000000000000e+02 1.499299924082145807e+01
8.810000000000000000e+02 2.355187165318399423e+01
8.820000000000000000e+02 2.271926100808966353e+01
8.830000000000000000e+02 1.101756858950418128e+01
8.840000000000000000e+02 2.237752923459851928e+01
8.850000000000000000e+02 2.453934066168886119e+01
8.860000000000000000e+02 6.828114501244625600e+00
8.870000000000000000e+02 3.421826635345291834e+01
8.880000000000000000e+02 3.705598550093348820e+01
8.890000000000000000e+02 2.633836643227584773e+01
8.900000000000000000e+02 9.887123084837353915e+00
8.910000000000000000e+02 1.490450077161839415e+00
8.920000000000000000e+02 2.171545258867470451e+01
8.930000000000000000e+02 1.854570608875973647e+01
8.940000000000000000e+02 2.413026135034223429e+01
8.950000000000000000e+02 1.613805347023431835e+01
8.960000000000000000e+02 1.128019152426374294e+00
8.970000000000000000e+02 2.376018613565730320e+01
8.980000000000000000e+02 2.797622856668696656e+01
8.990000000000000000e+02 6.099035286603686323e+00
9.000000000000000000e+02 4.608962931964918575e+00
9.010000000000000000e+02 1.424539336278728996e+01
9.020000000000000000e+02 1.595406128784740929e+01
9.030000000000000000e+02 9.800817858120966619e+00
9.040000000000000000e+02 2.564493559426985758e+00
9.050000000000000000e+02 2.066897925948947901e+01
9.060000000000000000e+02 1.600712504542673997e+01
9.070000000000000000e+02 7.226094364239584067e+00
9.080000000000000000e+02 1.460960748599875458e+01
9.090000000000000000e+02 1.660880477286870516e+01
9.100000000000000000e+02 1.094397423771004263e+01
9.110000000000000000e+02 7.508896871811135298e+00
9.120000000000000000e+02 9.957768825347812935e+00
9.130000000000000000e+02 9.675429274424026005e+00
9.140000000000000000e+02 1.001464337066761967e+00
9.150000000000000000e+02 8.906952373367010622e+00
9.160000000000000000e+02 5.355500066790776614e+00
9.170000000000000000e+02 1.319793710765332051e+01
9.180000000000000000e+02 5.342371672266025051e+00
9.190000000000000000e+02 1.817585844877562096e+01
9.200000000000000000e+02 1.504261450529038768e+01
9.210000000000000000e+02 7.301497118439241873e+00
9.220000000000000000e+02 1.397173201161309208e+01
9.230000000000000000e+02 1.314509358701541686e+01
9.240000000000000000e+02 1.846957383945236941e+01
9.250000000000000000e+02 1.200306362297818730e+01
9.260000000000000000e+02 3.208098690935408559e+00
9.270000000000000000e+02 7.552260953329119175e+00
9.280000000000000000e+02 1.620629874740752641e+01
9.290000000000000000e+02 1.463373502800270032e+01
9.300000000000000000e+02 1.557931541132652065e+01
9.310000000000000000e+02 1.639028346401078551e+01
9.320000000000000000e+02 1.416601229827923980e+01
9.330000000000000000e+02 2.467623335130955109e+00
9.340000000000000000e+02 1.029808344430495382e+01
9.350000000000000000e+02 5.271168248703343551e+00
9.360000000000000000e+02 1.943589691414330289e+01
9.370000000000000000e+02 2.506297630989407921e+01
9.380000000000000000e+02 2.289802631611720685e+01
9.390000000000000000e+02 1.426940805682289515e+01
9.400000000000000000e+02 1.970590304086296385e+01
9.410000000000000000e+02 3.075473911844023078e+01
9.420000000000000000e+02 3.805829587308178930e+01
9.430000000000000000e+02 2.521468686994353803e+01
9.440000000000000000e+02 3.488943455299779828e+01
9.450000000000000000e+02 3.728986143953508758e+01
9.460000000000000000e+02 3.392722658577064010e+01
9.470000000000000000e+02 3.533343322339767667e+01
9.480000000000000000e+02 3.465144706907300076e+01
9.490000000000000000e+02 2.359857359261665977e+01
9.500000000000000000e+02 4.186062728894427210e+01
9.510000000000000000e+02 2.353273872225645391e+01
9.520000000000000000e+02 2.136910874299956120e+01
9.530000000000000000e+02 2.018614610039498203e+01
9.540000000000000000e+02 2.600449287077369931e+01
9.550000000000000000e+02 2.620583155154530530e+01
9.560000000000000000e+02 3.012593219663970245e+01
9.570000000000000000e+02 2.600478848164238244e+01
9.580000000000000000e+02 1.094499109313433571e+01
9.590000000000000000e+02 2.624803706345891641e+01
9.600000000000000000e+02 2.556791576643855279e+01
9.610000000000000000e+02 5.547857548227008273e+00
9.620000000000000000e+02 1.585725525093317323e+01
9.630000000000000000e+02 1.543483023853986857e+01
9.640000000000000000e+02 1.622969191454045657e+01
9.650000000000000000e+02 8.128082831605039971e+00
9.660000000000000000e+02 5.435664194150589879e+00
9.670000000000000000e+02 8.386611099564456495e+00
9.680000000000000000e+02 2.314388873703884286e+01
9.690000000000000000e+02 5.271459234598802723e+00
9.700000000000000000e+02 2.092410767890521495e+00
9.710000000000000000e+02 1.095224210244716190e+01
9.720000000000000000e+02 7.811911930512383861e+00
9.730000000000000000e+02 8.304755347645688346e+00
9.740000000000000000e+02 6.024909302634219976e+00
9.750000000000000000e+02 5.675771029869397744e+00
9.760000000000000000e+02 1.091044046255963096e+01
9.770000000000000000e+02 1.181763307197674884e+01
9.780000000000000000e+02 5.270740257830349051e+00
9.790000000000000000e+02 7.504215273179923429e+00
9.800000000000000000e+02 5.294839881145084526e+00
9.810000000000000000e+02 9.557276438083384562e+00
9.820000000000000000e+02 5.000324685749852449e+00
9.830000000000000000e+02 1.000151205061192172e+01
9.840000000000000000e+02 1.418090413503409586e+01
9.850000000000000000e+02 1.067599635006021286e+00
9.860000000000000000e+02 1.143856831985067579e+01
9.870000000000000000e+02 1.202751824351775944e+01
9.880000000000000000e+02 1.397687037328907422e+01
9.890000000000000000e+02 7.461419233354127378e+00
9.900000000000000000e+02 6.577168555486652579e+00
9.910000000000000000e+02 1.873710807548729207e+01
9.920000000000000000e+02 1.520844421904153698e+01
9.930000000000000000e+02 1.064370447479755910e+01
9.940000000000000000e+02 3.429029809207780488e+01
9.950000000000000000e+02 1.877838969715866924e+01
9.960000000000000000e+02 1.273127413443380929e-01
9.970000000000000000e+02 7.703473254458677033e+00
9.980000000000000000e+02 1.082905578095828503e+01
9.990000000000000000e+02 9.039815129848596698e+00
1.000000000000000000e+03 9.822662848837246941e+00
1.001000000000000000e+03 2.016386483402482810e+01
1.002000000000000000e+03 1.392413132780070839e+01
1.003000000000000000e+03 1.984243543568454626e+01
1.004000000000000000e+03 1.587187747925297643e+01
1.005000000000000000e+03 3.314846879668150947e+00
1.006000000000000000e+03 3.701020680498225524e+00
1.007000000000000000e+03 7.262913556016332706e+00
1.008000000000000000e+03 1.528472439833993590e+01
1.009000000000000000e+03 4.073088490683419494e+00
1.010000000000000000e+03 5.090386078838145423e+00
1.011000000000000000e+03 1.266192190871537226e+00
1.012000000000000000e+03 1.498845684647333165e+01
1.013000000000000000e+03 2.712587658385092837e+01
1.014000000000000000e+03 3.254307414937817811e+01
1.015000000000000000e+03 4.088096593361009923e+01
1.016000000000000000e+03 2.856647867219943748e+01
1.017000000000000000e+03 5.156266157676347461e+01
1.018000000000000000e+03 5.726405441908709548e+01
1.019000000000000000e+03 6.657155869294618356e+01
1.020000000000000000e+03 4.240008653527065974e+01
1.021000000000000000e+03 5.015252792531281045e+01
1.022000000000000000e+03 8.477950572614126656e+01
1.023000000000000000e+03 8.982781970954383155e+01
1.024000000000000000e+03 8.264907568464717258e+01
1.025000000000000000e+03 1.090997360995842342e+02
1.026000000000000000e+03 1.136258446058094478e+02
1.027000000000000000e+03 1.229685406639017486e+02
1.028000000000000000e+03 1.435062732365136640e+02
1.029000000000000000e+03 1.381243468879668228e+02
1.030000000000000000e+03 1.370822390041506651e+02
1.031000000000000000e+03 1.419104282157684338e+02
1.032000000000000000e+03 1.429714302904560554e+02
1.033000000000000000e+03 1.654175199170134078e+02
1.034000000000000000e+03 1.825319995850621240e+02
1.035000000000000000e+03 1.677833452282160067e+02
1.036000000000000000e+03 1.980587219917017023e+02
1.037000000000000000e+03 1.809635439833997168e+02
1.038000000000000000e+03 1.938494157349877867e+02
1.039000000000000000e+03 2.176945751037344223e+02
1.040000000000000000e+03 2.006438116182549720e+02
1.041000000000000000e+03 1.835063692946092146e+02
1.042000000000000000e+03 2.202198900621110340e+02
1.043000000000000000e+03 2.283514004149376717e+02
1.044000000000000000e+03 2.239142524896266195e+02
1.045000000000000000e+03 2.314799871369293953e+02
1.046000000000000000e+03 2.076883689440994942e+02
1.047000000000000000e+03 2.023778821576771634e+02
1.048000000000000000e+03 2.116702161825723749e+02
1.049000000000000000e+03 2.097649356846477247e+02
1.050000000000000000e+03 1.976739506224064087e+02
1.051000000000000000e+03 1.975053147302911896e+02
1.052000000000000000e+03 2.150700838174265925e+02
1.053000000000000000e+03 2.115881605809128985e+02
1.054000000000000000e+03 1.907661688796683279e+02
1.055000000000000000e+03 2.087409908713678703e+02
1.056000000000000000e+03 2.045580655601663977e+02
1.057000000000000000e+03 1.944363717842322217e+02
1.058000000000000000e+03 1.739501605809093405e+02
1.059000000000000000e+03 1.627215076763474428e+02
1.060000000000000000e+03 1.919577317427390142e+02
1.061000000000000000e+03 2.097976217842325184e+02
1.062000000000000000e+03 1.957059869294608632e+02
1.063000000000000000e+03 2.001221543568464085e+02
1.064000000000000000e+03 1.914544605809122970e+02
1.065000000000000000e+03 2.023058381742759479e+02
1.066000000000000000e+03 2.093128767634856899e+02
1.067000000000000000e+03 2.029540508298751433e+02
1.068000000000000000e+03 1.830877941908687205e+02
1.069000000000000000e+03 1.638948802904562569e+02
1.070000000000000000e+03 1.693859526970952913e+02
1.071000000000000000e+03 1.772271163561080414e+02
1.072000000000000000e+03 1.836919842323652574e+02
1.073000000000000000e+03 1.871617327800830992e+02
1.074000000000000000e+03 1.725330058091282410e+02
1.075000000000000000e+03 1.648475543568463593e+02
1.076000000000000000e+03 1.597738506224072239e+02
1.077000000000000000e+03 1.611098823651451823e+02
1.078000000000000000e+03 1.631072188796677551e+02
1.079000000000000000e+03 1.508983008298768880e+02
1.080000000000000000e+03 1.501700460580898095e+02
1.081000000000000000e+03 1.918676414937752952e+02
1.082000000000000000e+03 1.611146020746877809e+02
1.083000000000000000e+03 1.527404688796678158e+02
1.084000000000000000e+03 1.579322531120332940e+02
1.085000000000000000e+03 1.715094661825737319e+02
1.086000000000000000e+03 1.773792334024900015e+02
1.087000000000000000e+03 1.831296257261405174e+02
1.088000000000000000e+03 1.738095902691494814e+02
1.089000000000000000e+03 1.433525112033197786e+02
1.090000000000000000e+03 1.636341253112018137e+02
1.091000000000000000e+03 1.910908742738589865e+02
1.092000000000000000e+03 1.687027714285689513e+02
1.093000000000000000e+03 1.533097400414921765e+02
1.094000000000000000e+03 1.851696748962650076e+02
1.095000000000000000e+03 1.845701854771775743e+02
1.096000000000000000e+03 1.843465614107856823e+02
1.097000000000000000e+03 2.058483593360990938e+02
1.098000000000000000e+03 1.982964431535262975e+02
1.099000000000000000e+03 1.784695041493790768e+02
1.100000000000000000e+03 1.982629670807449997e+02
1.101000000000000000e+03 1.878659813278008528e+02
1.102000000000000000e+03 1.989852713692953898e+02
1.103000000000000000e+03 1.984016840248965536e+02
1.104000000000000000e+03 2.112403643153517976e+02
1.105000000000000000e+03 2.010668435684637529e+02
1.106000000000000000e+03 1.830846755186710197e+02
1.107000000000000000e+03 1.785295190871369471e+02
1.108000000000000000e+03 1.799327422360248079e+02
1.109000000000000000e+03 1.812991510373438473e+02
1.110000000000000000e+03 1.720101398340261198e+02
1.111000000000000000e+03 1.618990811203319993e+02
1.112000000000000000e+03 1.660562325726142205e+02
1.113000000000000000e+03 1.635194045643153800e+02
1.114000000000000000e+03 1.484032452282166048e+02
1.115000000000000000e+03 1.556852842323652055e+02
1.116000000000000000e+03 1.631374518672197382e+02
1.117000000000000000e+03 1.499474602484480101e+02
1.118000000000000000e+03 1.321033941908716542e+02
1.119000000000000000e+03 1.171170923236505672e+02
1.120000000000000000e+03 1.287333568464729012e+02
1.121000000000000000e+03 1.099340751037340453e+02
1.122000000000000000e+03 1.077835195020744266e+02
1.123000000000000000e+03 1.046579597510376800e+02
1.124000000000000000e+03 1.047796572614115149e+02
1.125000000000000000e+03 8.676292170124490610e+01
1.126000000000000000e+03 8.663706643153638254e+01
1.127000000000000000e+03 8.489036570539438742e+01
1.128000000000000000e+03 8.112902751037219673e+01
1.129000000000000000e+03 9.575448836438920353e+01
1.130000000000000000e+03 8.689061443983338506e+01
1.131000000000000000e+03 7.862588207469005397e+01
1.132000000000000000e+03 4.600177742738629405e+01
1.133000000000000000e+03 3.252296502074559470e+01
1.134000000000000000e+03 4.602679865145231730e+01
1.135000000000000000e+03 2.850147535269672261e+01
1.136000000000000000e+03 2.759988429460558024e+01
1.137000000000000000e+03 2.790868950310478169e+01
1.138000000000000000e+03 2.462754614107899442e+01
1.139000000000000000e+03 2.399146336099582300e+01
1.140000000000000000e+03 1.995072066390116916e+01
1.141000000000000000e+03 1.907012921161843266e+01
1.142000000000000000e+03 2.270473029045619384e+01
1.143000000000000000e+03 2.661152288381729747e+01
1.144000000000000000e+03 9.490284690869614792e+00
1.145000000000000000e+03 2.400361943983231328e+01
1.146000000000000000e+03 1.213932523808868069e+00
1.147000000000000000e+03 1.700934705394129764e+01
1.148000000000000000e+03 3.156926846471585613e+00
1.149000000000000000e+03 1.727797207468870866e+01
1.150000000000000000e+03 9.496966943982060982e+00
1.151000000000000000e+03 1.152110676348552154e+01
1.152000000000000000e+03 8.029012454357246753e+00
1.153000000000000000e+03 6.216533296680621490e+00
1.154000000000000000e+03 2.696530547717862447e+01
1.155000000000000000e+03 1.338009784232158594e+01
1.156000000000000000e+03 2.246091091286309904e+01
1.157000000000000000e+03 3.990274804979384271e+01
1.158000000000000000e+03 1.954399376811909050e+01
1.159000000000000000e+03 2.094663625103608240e+01
1.160000000000000000e+03 2.479930634853541704e+00
1.161000000000000000e+03 4.009853236514163655e+01
1.162000000000000000e+03 1.624185130434599245e+01
1.163000000000000000e+03 3.002658556016594815e+01
1.164000000000000000e+03 1.624326211618212668e+00
1.165000000000000000e+03 1.293901053941946344e+01
1.166000000000000000e+03 5.943283469979450118e+00
1.167000000000000000e+03 1.615210176348621474e+01
1.168000000000000000e+03 3.727137970954530033e+01
1.169000000000000000e+03 1.601000542946373173e+01
1.170000000000000000e+03 2.743524663900470895e+00
1.171000000000000000e+03 9.775195539419442525e+00
1.172000000000000000e+03 1.854144871369194902e+01
1.173000000000000000e+03 3.130262016597495744e+01
1.174000000000000000e+03 2.987603572614259662e+01
1.175000000000000000e+03 7.095545087136977713e+01
1.176000000000000000e+03 6.769065512448149491e+01
1.177000000000000000e+03 6.582035987551859080e+01
1.178000000000000000e+03 4.834541242738504963e+01
1.179000000000000000e+03 6.263023099584883369e+01
1.180000000000000000e+03 6.584196850622430475e+01
1.181000000000000000e+03 5.378202912863032026e+01
1.182000000000000000e+03 5.080574377593352864e+01
1.183000000000000000e+03 5.745609726141037044e+01
1.184000000000000000e+03 6.551568724066400762e+01
1.185000000000000000e+03 6.480486927385874196e+01
1.186000000000000000e+03 5.917296099585131230e+01
1.187000000000000000e+03 4.327514999999999645e+01
1.188000000000000000e+03 4.166598082987582075e+01
1.189000000000000000e+03 4.558109041493937497e+01
1.190000000000000000e+03 2.248194879668112023e+01
1.191000000000000000e+03 4.125790819875874149e+01
1.192000000000000000e+03 9.328077966805039978e+01
1.193000000000000000e+03 8.553489470954846752e+01
1.194000000000000000e+03 5.266313780082981566e+01
1.195000000000000000e+03 5.997285263485461115e+01
1.196000000000000000e+03 5.941249663900362066e+01
1.197000000000000000e+03 6.156055261410805457e+01
1.198000000000000000e+03 5.006354165975103854e+01
1.199000000000000000e+03 6.995260518672375838e+01
1.200000000000000000e+03 4.550568815352865215e+01
1.201000000000000000e+03 6.410410441908726398e+01
1.202000000000000000e+03 7.567342248962599172e+01
1.203000000000000000e+03 6.241567265560286160e+01
1.204000000000000000e+03 5.515947244813288108e+01
1.205000000000000000e+03 3.273605020746707339e+01
1.206000000000000000e+03 1.422060668049803667e+01
1.207000000000000000e+03 3.045498473028908748e+01
1.208000000000000000e+03 3.628129186335383594e+01
1.209000000000000000e+03 2.405192423236557175e+01
1.210000000000000000e+03 3.501350890041552333e+01
1.211000000000000000e+03 1.081525978008320088e+01
1.212000000000000000e+03 6.192389376811919988e+01
1.213000000000000000e+03 4.797155290456733923e+01
1.214000000000000000e+03 2.498925522821548739e+01
1.215000000000000000e+03 4.375428838174290291e+01
1.216000000000000000e+03 2.860350004149119130e+01
1.217000000000000000e+03 1.100100523651364526e+01
1.218000000000000000e+03 2.073190512448127620e+01
1.219000000000000000e+03 1.056089124896098852e+01
1.220000000000000000e+03 5.944121927536048844e+00
1.221000000000000000e+03 2.892910705394083237e+01
1.222000000000000000e+03 4.798282402489627430e+01
1.223000000000000000e+03 3.337282767634828673e+01
1.224000000000000000e+03 4.789292995850551193e+01
1.225000000000000000e+03 8.999127842323478177e+00
1.226000000000000000e+03 5.328653873443522038e+00
1.227000000000000000e+03 3.774177802904212342e+01
1.228000000000000000e+03 2.797867173913139638e+01
1.229000000000000000e+03 2.555225522821661599e+01
1.230000000000000000e+03 3.097807037344313130e+01
1.231000000000000000e+03 2.014916647302954544e+01
1.232000000000000000e+03 2.601811095435677501e+01
1.233000000000000000e+03 3.959124786307034327e+01
1.234000000000000000e+03 4.662475599584816877e+01
1.235000000000000000e+03 6.804885744813294934e+01
1.236000000000000000e+03 2.470382987551756315e+01
1.237000000000000000e+03 1.878354202898530900e+01
1.238000000000000000e+03 3.041821153526914401e+01
1.239000000000000000e+03 3.079324564315349377e+01
1.240000000000000000e+03 3.713072033195086163e+01
1.241000000000000000e+03 1.091186789211754693e+01
1.242000000000000000e+03 2.070521626555972716e+01
1.243000000000000000e+03 3.899100670124373380e+01
1.244000000000000000e+03 1.926729402489623766e+01
1.245000000000000000e+03 8.675910373444835955e+00
1.246000000000000000e+03 0.000000000000000000e+00
1.247000000000000000e+03 0.000000000000000000e+00
1.248000000000000000e+03 0.000000000000000000e+00
1.249000000000000000e+03 0.000000000000000000e+00
1.250000000000000000e+03 0.000000000000000000e+00
1.251000000000000000e+03 0.000000000000000000e+00
1.252000000000000000e+03 0.000000000000000000e+00
1.253000000000000000e+03 0.000000000000000000e+00
1.254000000000000000e+03 0.000000000000000000e+00
1.255000000000000000e+03 0.000000000000000000e+00
1.256000000000000000e+03 0.000000000000000000e+00
1.257000000000000000e+03 0.000000000000000000e+00
1.258000000000000000e+03 0.000000000000000000e+00
1.259000000000000000e+03 0.000000000000000000e+00
1.260000000000000000e+03 0.000000000000000000e+00
1.261000000000000000e+03 0.000000000000000000e+00
1.262000000000000000e+03 0.000000000000000000e+00
1.263000000000000000e+03 0.000000000000000000e+00
1.264000000000000000e+03 0.000000000000000000e+00
1.265000000000000000e+03 0.000000000000000000e+00
1.266000000000000000e+03 0.000000000000000000e+00
1.267000000000000000e+03 0.000000000000000000e+00
1.268000000000000000e+03 0.000000000000000000e+00
1.269000000000000000e+03 0.000000000000000000e+00
1.270000000000000000e+03 0.000000000000000000e+00
1.271000000000000000e+03 0.000000000000000000e+00
1.272000000000000000e+03 0.000000000000000000e+00
1.273000000000000000e+03 0.000000000000000000e+00
1.274000000000000000e+03 0.000000000000000000e+00
1.275000000000000000e+03 0.000000000000000000e+00
1.276000000000000000e+03 0.000000000000000000e+00
1.277000000000000000e+03 0.000000000000000000e+00
1.278000000000000000e+03 0.000000000000000000e+00
1.279000000000000000e+03 0.000000000000000000e+00
1.280000000000000000e+03 0.000000000000000000e+00
1.281000000000000000e+03 0.000000000000000000e+00
1.282000000000000000e+03 0.000000000000000000e+00
1.283000000000000000e+03 0.000000000000000000e+00
1.284000000000000000e+03 0.000000000000000000e+00
1.285000000000000000e+03 0.000000000000000000e+00
1.286000000000000000e+03 0.000000000000000000e+00
1.287000000000000000e+03 0.000000000000000000e+00
1.288000000000000000e+03 0.000000000000000000e+00
1.289000000000000000e+03 0.000000000000000000e+00
1.290000000000000000e+03 0.000000000000000000e+00
1.291000000000000000e+03 0.000000000000000000e+00
1.292000000000000000e+03 0.000000000000000000e+00
1.293000000000000000e+03 0.000000000000000000e+00
1.294000000000000000e+03 0.000000000000000000e+00
1.295000000000000000e+03 0.000000000000000000e+00
1.296000000000000000e+03 0.000000000000000000e+00
1.297000000000000000e+03 0.000000000000000000e+00
1.298000000000000000e+03 0.000000000000000000e+00
1.299000000000000000e+03 0.000000000000000000e+00
1.300000000000000000e+03 0.000000000000000000e+00
1.301000000000000000e+03 0.000000000000000000e+00
1.302000000000000000e+03 0.000000000000000000e+00
1.303000000000000000e+03 0.000000000000000000e+00
1.304000000000000000e+03 0.000000000000000000e+00
1.305000000000000000e+03 0.000000000000000000e+00
1.306000000000000000e+03 0.000000000000000000e+00
1.307000000000000000e+03 0.000000000000000000e+00
1.308000000000000000e+03 0.000000000000000000e+00
1.309000000000000000e+03 0.000000000000000000e+00
1.310000000000000000e+03 0.000000000000000000e+00
1.311000000000000000e+03 0.000000000000000000e+00
1.312000000000000000e+03 0.000000000000000000e+00
1.313000000000000000e+03 0.000000000000000000e+00
1.314000000000000000e+03 0.000000000000000000e+00
1.315000000000000000e+03 0.000000000000000000e+00
1.316000000000000000e+03 0.000000000000000000e+00
1.317000000000000000e+03 0.000000000000000000e+00
1.318000000000000000e+03 0.000000000000000000e+00
1.319000000000000000e+03 0.000000000000000000e+00
1.320000000000000000e+03 0.000000000000000000e+00
1.321000000000000000e+03 0.000000000000000000e+00
1.322000000000000000e+03 0.000000000000000000e+00
1.323000000000000000e+03 0.000000000000000000e+00
1.324000000000000000e+03 0.000000000000000000e+00
1.325000000000000000e+03 0.000000000000000000e+00
1.326000000000000000e+03 0.000000000000000000e+00
1.327000000000000000e+03 0.000000000000000000e+00
1.328000000000000000e+03 0.000000000000000000e+00
1.329000000000000000e+03 0.000000000000000000e+00
1.330000000000000000e+03 0.000000000000000000e+00
1.331000000000000000e+03 0.000000000000000000e+00
1.332000000000000000e+03 0.000000000000000000e+00
1.333000000000000000e+03 0.000000000000000000e+00
1.334000000000000000e+03 0.000000000000000000e+00
1.335000000000000000e+03 0.000000000000000000e+00
1.336000000000000000e+03 0.000000000000000000e+00
1.337000000000000000e+03 0.000000000000000000e+00
1.338000000000000000e+03 0.000000000000000000e+00
1.339000000000000000e+03 0.000000000000000000e+00
1.340000000000000000e+03 0.000000000000000000e+00
1.341000000000000000e+03 0.000000000000000000e+00
1.342000000000000000e+03 0.000000000000000000e+00
1.343000000000000000e+03 0.000000000000000000e+00
1.344000000000000000e+03 0.000000000000000000e+00
1.345000000000000000e+03 0.000000000000000000e+00
1.346000000000000000e+03 0.000000000000000000e+00
1.347000000000000000e+03 0.000000000000000000e+00
1.348000000000000000e+03 0.000000000000000000e+00
1.349000000000000000e+03 0.000000000000000000e+00
1.350000000000000000e+03 0.000000000000000000e+00
1.351000000000000000e+03 0.000000000000000000e+00
1.352000000000000000e+03 0.000000000000000000e+00
1.353000000000000000e+03 0.000000000000000000e+00
1.354000000000000000e+03 0.000000000000000000e+00
1.355000000000000000e+03 0.000000000000000000e+00
1.356000000000000000e+03 0.000000000000000000e+00
1.357000000000000000e+03 0.000000000000000000e+00
1.358000000000000000e+03 0.000000000000000000e+00
1.359000000000000000e+03 0.000000000000000000e+00
1.360000000000000000e+03 0.000000000000000000e+00
1.361000000000000000e+03 0.000000000000000000e+00
1.362000000000000000e+03 0.000000000000000000e+00
1.363000000000000000e+03 0.000000000000000000e+00
1.364000000000000000e+03 0.000000000000000000e+00
1.365000000000000000e+03 0.000000000000000000e+00
1.366000000000000000e+03 0.000000000000000000e+00
1.367000000000000000e+03 0.000000000000000000e+00
1.368000000000000000e+03 0.000000000000000000e+00
1.369000000000000000e+03 0.000000000000000000e+00
1.370000000000000000e+03 0.000000000000000000e+00
1.371000000000000000e+03 0.000000000000000000e+00
1.372000000000000000e+03 0.000000000000000000e+00
1.373000000000000000e+03 0.000000000000000000e+00
1.374000000000000000e+03 0.000000000000000000e+00
1.375000000000000000e+03 0.000000000000000000e+00
1.376000000000000000e+03 0.000000000000000000e+00
1.377000000000000000e+03 0.000000000000000000e+00
1.378000000000000000e+03 0.000000000000000000e+00
1.379000000000000000e+03 0.000000000000000000e+00
1.380000000000000000e+03 0.000000000000000000e+00
1.381000000000000000e+03 0.000000000000000000e+00
1.382000000000000000e+03 0.000000000000000000e+00
1.383000000000000000e+03 0.000000000000000000e+00
1.384000000000000000e+03 0.000000000000000000e+00
1.385000000000000000e+03 0.000000000000000000e+00
1.386000000000000000e+03 0.000000000000000000e+00
1.387000000000000000e+03 0.000000000000000000e+00
1.388000000000000000e+03 0.000000000000000000e+00
1.389000000000000000e+03 0.000000000000000000e+00
1.390000000000000000e+03 0.000000000000000000e+00
1.391000000000000000e+03 0.000000000000000000e+00
1.392000000000000000e+03 0.000000000000000000e+00
1.393000000000000000e+03 0.000000000000000000e+00
1.394000000000000000e+03 0.000000000000000000e+00
1.395000000000000000e+03 0.000000000000000000e+00
1.396000000000000000e+03 0.000000000000000000e+00
1.397000000000000000e+03 0.000000000000000000e+00
1.398000000000000000e+03 0.000000000000000000e+00
1.399000000000000000e+03 0.000000000000000000e+00
1.400000000000000000e+03 0.000000000000000000e+00
1.401000000000000000e+03 0.000000000000000000e+00
1.402000000000000000e+03 0.000000000000000000e+00
1.403000000000000000e+03 0.000000000000000000e+00
1.404000000000000000e+03 0.000000000000000000e+00
1.405000000000000000e+03 0.000000000000000000e+00
1.406000000000000000e+03 0.000000000000000000e+00
1.407000000000000000e+03 0.000000000000000000e+00
1.408000000000000000e+03 0.000000000000000000e+00
1.409000000000000000e+03 0.000000000000000000e+00
1.410000000000000000e+03 0.000000000000000000e+00
1.411000000000000000e+03 0.000000000000000000e+00
1.412000000000000000e+03 0.000000000000000000e+00
1.413000000000000000e+03 0.000000000000000000e+00
1.414000000000000000e+03 0.000000000000000000e+00
1.415000000000000000e+03 0.000000000000000000e+00
1.416000000000000000e+03 0.000000000000000000e+00
1.417000000000000000e+03 0.000000000000000000e+00
1.418000000000000000e+03 0.000000000000000000e+00
1.419000000000000000e+03 0.000000000000000000e+00
1.420000000000000000e+03 0.000000000000000000e+00
1.421000000000000000e+03 0.000000000000000000e+00
1.422000000000000000e+03 0.000000000000000000e+00
1.423000000000000000e+03 0.000000000000000000e+00
1.424000000000000000e+03 0.000000000000000000e+00
1.425000000000000000e+03 0.000000000000000000e+00
1.426000000000000000e+03 0.000000000000000000e+00
1.427000000000000000e+03 0.000000000000000000e+00
1.428000000000000000e+03 0.000000000000000000e+00
1.429000000000000000e+03 0.000000000000000000e+00
1.430000000000000000e+03 0.000000000000000000e+00
1.431000000000000000e+03 0.000000000000000000e+00
1.432000000000000000e+03 0.000000000000000000e+00
1.433000000000000000e+03 0.000000000000000000e+00
1.434000000000000000e+03 0.000000000000000000e+00
1.435000000000000000e+03 0.000000000000000000e+00
1.436000000000000000e+03 0.000000000000000000e+00
1.437000000000000000e+03 0.000000000000000000e+00
1.438000000000000000e+03 0.000000000000000000e+00
1.439000000000000000e+03 0.000000000000000000e+00
1.440000000000000000e+03 0.000000000000000000e+00
1.441000000000000000e+03 0.000000000000000000e+00
1.442000000000000000e+03 0.000000000000000000e+00
1.443000000000000000e+03 0.000000000000000000e+00
1.444000000000000000e+03 0.000000000000000000e+00
1.445000000000000000e+03 0.000000000000000000e+00
1.446000000000000000e+03 0.000000000000000000e+00
1.447000000000000000e+03 0.000000000000000000e+00
1.448000000000000000e+03 0.000000000000000000e+00
1.449000000000000000e+03 0.000000000000000000e+00
1.450000000000000000e+03 0.000000000000000000e+00
1.451000000000000000e+03 0.000000000000000000e+00
1.452000000000000000e+03 0.000000000000000000e+00
1.453000000000000000e+03 0.000000000000000000e+00
1.454000000000000000e+03 0.000000000000000000e+00
1.455000000000000000e+03 0.000000000000000000e+00
1.456000000000000000e+03 0.000000000000000000e+00
1.457000000000000000e+03 0.000000000000000000e+00
1.458000000000000000e+03 0.000000000000000000e+00
1.459000000000000000e+03 0.000000000000000000e+00
1.460000000000000000e+03 0.000000000000000000e+00
1.461000000000000000e+03 0.000000000000000000e+00
1.462000000000000000e+03 0.000000000000000000e+00
1.463000000000000000e+03 0.000000000000000000e+00
1.464000000000000000e+03 0.000000000000000000e+00
1.465000000000000000e+03 0.000000000000000000e+00
1.466000000000000000e+03 0.000000000000000000e+00
1.467000000000000000e+03 0.000000000000000000e+00
1.468000000000000000e+03 0.000000000000000000e+00
1.469000000000000000e+03 0.000000000000000000e+00
1.470000000000000000e+03 0.000000000000000000e+00
1.471000000000000000e+03 0.000000000000000000e+00
1.472000000000000000e+03 0.000000000000000000e+00
1.473000000000000000e+03 0.000000000000000000e+00
1.474000000000000000e+03 0.000000000000000000e+00
1.475000000000000000e+03 0.000000000000000000e+00
1.476000000000000000e+03 0.000000000000000000e+00
1.477000000000000000e+03 0.000000000000000000e+00
1.478000000000000000e+03 0.000000000000000000e+00
1.479000000000000000e+03 0.000000000000000000e+00
1.480000000000000000e+03 0.000000000000000000e+00
1.481000000000000000e+03 0.000000000000000000e+00
1.482000000000000000e+03 0.000000000000000000e+00
1.483000000000000000e+03 0.000000000000000000e+00
1.484000000000000000e+03 0.000000000000000000e+00
1.485000000000000000e+03 0.000000000000000000e+00
1.486000000000000000e+03 0.000000000000000000e+00
1.487000000000000000e+03 0.000000000000000000e+00
1.488000000000000000e+03 0.000000000000000000e+00
1.489000000000000000e+03 0.000000000000000000e+00
1.490000000000000000e+03 0.000000000000000000e+00
1.491000000000000000e+03 0.000000000000000000e+00
1.492000000000000000e+03 0.000000000000000000e+00
1.493000000000000000e+03 0.000000000000000000e+00
1.494000000000000000e+03 0.000000000000000000e+00
1.495000000000000000e+03 0.000000000000000000e+00
1.496000000000000000e+03 0.000000000000000000e+00
1.497000000000000000e+03 0.000000000000000000e+00
1.498000000000000000e+03 0.000000000000000000e+00
1.499000000000000000e+03 0.000000000000000000e+00
1.500000000000000000e+03 0.000000000000000000e+00
