1.010000000000000000e+02 0.000000000000000000e+00
1.020000000000000000e+02 0.000000000000000000e+00
1.030000000000000000e+02 0.000000000000000000e+00
1.040000000000000000e+02 0.000000000000000000e+00
1.050000000000000000e+02 0.000000000000000000e+00
1.060000000000000000e+02 0.000000000000000000e+00
1.070000000000000000e+02 0.000000000000000000e+00
1.080000000000000000e+02 0.000000000000000000e+00
1.090000000000000000e+02 0.000000000000000000e+00
1.100000000000000000e+02 0.000000000000000000e+00
1.110000000000000000e+02 0.000000000000000000e+00
1.120000000000000000e+02 0.000000000000000000e+00
1.130000000000000000e+02 0.000000000000000000e+00
1.140000000000000000e+02 0.000000000000000000e+00
1.150000000000000000e+02 0.000000000000000000e+00
1.160000000000000000e+02 0.000000000000000000e+00
1.170000000000000000e+02 0.000000000000000000e+00
1.180000000000000000e+02 0.000000000000000000e+00
1.190000000000000000e+02 0.000000000000000000e+00
1.200000000000000000e+02 0.000000000000000000e+00
1.210000000000000000e+02 4.988217427385893643e+01
1.220000000000000000e+02 2.217075684647306275e+02
1.230000000000000000e+02 4.822124688796688474e+02
1.240000000000000000e+02 7.138521573498966291e+02
1.250000000000000000e+02 7.944569564315352181e+02
1.260000000000000000e+02 6.040758236514517421e+02
1.270000000000000000e+02 3.561537863070529966e+02
1.280000000000000000e+02 1.428592116182572056e+02
1.290000000000000000e+02 9.661136929460658607e+00
1.300000000000000000e+02 3.706887551867207264e+01
1.310000000000000000e+02 2.277320331950232202e+01
1.320000000000000000e+02 5.537327950310562841e+01
1.330000000000000000e+02 5.073846887966799812e+01
1.340000000000000000e+02 3.801690663900414791e+01
1.350000000000000000e+02 4.563160788381748034e+01
1.360000000000000000e+02 5.489009523809529867e+01
1.370000000000000000e+02 9.274118672199190883e+01
1.380000000000000000e+02 1.564813817427389040e+02
1.390000000000000000e+02 2.286301493775938525e+02
1.400000000000000000e+02 3.179809377593368822e+02
1.410000000000000000e+02 4.358142199170130198e+02
1.420000000000000000e+02 6.593038278008318684e+02
1.430000000000000000e+02 1.027689107883820952e+03
1.440000000000000000e+02 1.454558084886130246e+03
1.450000000000000000e+02 1.563052883817426846e+03
1.460000000000000000e+02 1.290016771784228695e+03
1.470000000000000000e+02 8.004295518672163325e+02
1.480000000000000000e+02 4.205924813277977705e+02
1.490000000000000000e+02 1.858330705394180029e+02
1.500000000000000000e+02 1.039503838174273795e+02
1.510000000000000000e+02 8.061242116182530992e+01
1.520000000000000000e+02 3.424354564315314775e+01
1.530000000000000000e+02 2.126470393374743040e+01
1.540000000000000000e+02 7.432526970954424428e+01
1.550000000000000000e+02 1.403582821576768822e+02
1.560000000000000000e+02 1.986975394190876330e+02
1.570000000000000000e+02 2.718431867219929927e+02
1.580000000000000000e+02 4.893474813278032229e+02
1.590000000000000000e+02 7.134515601659772983e+02
1.600000000000000000e+02 9.855879273858968190e+02
1.610000000000000000e+02 1.403310997929611631e+03
1.620000000000000000e+02 1.851181448132785363e+03
1.630000000000000000e+02 2.487486800829884032e+03
1.640000000000000000e+02 3.303630846473040492e+03
1.650000000000000000e+02 4.336250503105602547e+03
1.660000000000000000e+02 5.744591516597526606e+03
1.670000000000000000e+02 6.990695854771798622e+03
1.680000000000000000e+02 7.850471865145237643e+03
1.690000000000000000e+02 8.528492935684635086e+03
1.700000000000000000e+02 9.233965045643151825e+03
1.710000000000000000e+02 8.728436398340230880e+03
1.720000000000000000e+02 6.732614962655638010e+03
1.730000000000000000e+02 4.293853975155287117e+03
1.740000000000000000e+02 2.535324392116165200e+03
1.750000000000000000e+02 1.530280076763485567e+03
1.760000000000000000e+02 1.071682136929463923e+03
1.770000000000000000e+02 8.669597219917029634e+02
1.780000000000000000e+02 7.926881801242235497e+02
1.790000000000000000e+02 8.490593029045634239e+02
1.800000000000000000e+02 8.755601078838171816e+02
1.810000000000000000e+02 9.830734730290441803e+02
1.820000000000000000e+02 1.198203367219913162e+03
1.830000000000000000e+02 1.518895348547711819e+03
1.840000000000000000e+02 2.042568869294600518e+03
1.850000000000000000e+02 2.461627211618254478e+03
1.860000000000000000e+02 2.502729887966808292e+03
1.870000000000000000e+02 2.140585825726146595e+03
1.880000000000000000e+02 1.629384149377597623e+03
1.890000000000000000e+02 1.326653734439835716e+03
1.900000000000000000e+02 1.225132879917184482e+03
1.910000000000000000e+02 1.308111346473027197e+03
1.920000000000000000e+02 1.551922201244811049e+03
1.930000000000000000e+02 1.819901753112030974e+03
1.940000000000000000e+02 2.312605768115935916e+03
1.950000000000000000e+02 3.017413954356838985e+03
1.960000000000000000e+02 3.950650526970944156e+03
1.970000000000000000e+02 5.165869323651445484e+03
1.980000000000000000e+02 5.961442900414936048e+03
1.990000000000000000e+02 5.920888782157681817e+03
2.000000000000000000e+02 5.005902379668060348e+03
2.010000000000000000e+02 3.681311728215773655e+03
2.020000000000000000e+02 2.944376894409941542e+03
2.030000000000000000e+02 2.540429062240666099e+03
2.040000000000000000e+02 2.241479381742740316e+03
2.050000000000000000e+02 1.905321165975105487e+03
2.060000000000000000e+02 1.458880892116184214e+03
2.070000000000000000e+02 1.004709536231886887e+03
2.080000000000000000e+02 6.568428278008316283e+02
2.090000000000000000e+02 4.077484626556025660e+02
2.100000000000000000e+02 2.062875942028990153e+02
2.110000000000000000e+02 8.186291286307114490e+01
2.120000000000000000e+02 1.142077593360959398e+01
2.130000000000000000e+02 8.141224896265541133e+01
2.140000000000000000e+02 1.182264024896265511e+02
2.150000000000000000e+02 1.099634120082816082e+02
2.160000000000000000e+02 9.463168049792537317e+01
2.170000000000000000e+02 7.774212033195024674e+01
2.180000000000000000e+02 5.192888174273861779e+01
2.190000000000000000e+02 1.133419875776410457e+01
2.200000000000000000e+02 1.050797012448129664e+02
2.210000000000000000e+02 1.681293402489626203e+02
2.220000000000000000e+02 2.668809999999999718e+02
2.230000000000000000e+02 4.482978757763977455e+02
2.240000000000000000e+02 6.867872738589207984e+02
2.250000000000000000e+02 8.513038589211616909e+02
2.260000000000000000e+02 9.381814834024896754e+02
2.270000000000000000e+02 9.127412738589208629e+02
2.280000000000000000e+02 7.815040165975104856e+02
2.290000000000000000e+02 6.711463278008297948e+02
2.300000000000000000e+02 5.230084813278004958e+02
2.310000000000000000e+02 4.102413333333333298e+02
2.320000000000000000e+02 3.179840269709543463e+02
2.330000000000000000e+02 1.772311224066388604e+02
2.340000000000000000e+02 1.038030207468878245e+02
2.350000000000000000e+02 1.025580041493776946e+02
2.360000000000000000e+02 9.682049792531117305e+01
2.370000000000000000e+02 5.499225311203317546e+01
2.380000000000000000e+02 4.943340248962651629e+01
2.390000000000000000e+02 2.519113043478259328e+01
2.400000000000000000e+02 6.562435684647319079e+01
2.410000000000000000e+02 1.257419626556015970e+02
2.420000000000000000e+02 1.652665580912869814e+02
2.430000000000000000e+02 4.770986742738603539e+02
2.440000000000000000e+02 4.745199917184257288e+02
2.450000000000000000e+02 3.136803278008292750e+02
2.460000000000000000e+02 2.136631369294602223e+02
2.470000000000000000e+02 2.081026058091287325e+02
2.480000000000000000e+02 2.625554202898553058e+02
2.490000000000000000e+02 3.108078921161828134e+02
2.500000000000000000e+02 3.763486742738596718e+02
2.510000000000000000e+02 4.800092448132784284e+02
2.520000000000000000e+02 5.428450973084896987e+02
2.530000000000000000e+02 7.436971618257274486e+02
2.540000000000000000e+02 9.010377219917015736e+02
2.550000000000000000e+02 1.087501618257264909e+03
2.560000000000000000e+02 1.473881130434784609e+03
2.570000000000000000e+02 1.571155719917012675e+03
2.580000000000000000e+02 1.424400234439834321e+03
2.590000000000000000e+02 1.243677599585061898e+03
2.600000000000000000e+02 1.139282865145227788e+03
2.610000000000000000e+02 1.053157601659752572e+03
2.620000000000000000e+02 9.807905020746901528e+02
2.630000000000000000e+02 9.221725767634861768e+02
2.640000000000000000e+02 9.018891304347822597e+02
2.650000000000000000e+02 9.486137178423239220e+02
2.660000000000000000e+02 1.075152724066390419e+03
2.670000000000000000e+02 1.164337701244813388e+03
2.680000000000000000e+02 1.283482296066254321e+03
2.690000000000000000e+02 1.464468609958505112e+03
2.700000000000000000e+02 1.660267655601659499e+03
2.710000000000000000e+02 1.819721829875518779e+03
2.720000000000000000e+02 1.984911477178424320e+03
2.730000000000000000e+02 2.024630391304348677e+03
2.740000000000000000e+02 1.859439292531123101e+03
2.750000000000000000e+02 1.552584058091290899e+03
2.760000000000000000e+02 1.133754773858926683e+03
2.770000000000000000e+02 7.691476016597486023e+02
2.780000000000000000e+02 5.255018547717830870e+02
2.790000000000000000e+02 3.911943609958497063e+02
2.800000000000000000e+02 2.719923195020738831e+02
2.810000000000000000e+02 1.561558900414943025e+02
2.820000000000000000e+02 1.526227821576761130e+02
2.830000000000000000e+02 1.946688796680497546e+02
2.840000000000000000e+02 1.448395809128629423e+02
2.850000000000000000e+02 1.488385445134574638e+02
2.860000000000000000e+02 1.101028506224071180e+02
2.870000000000000000e+02 2.267919917012527264e+01
2.880000000000000000e+02 2.920043153526967927e+01
2.890000000000000000e+02 4.082450207468814085e+01
2.900000000000000000e+02 4.505995850622399956e+01
2.910000000000000000e+02 4.598714937759362442e+01
2.920000000000000000e+02 8.444048340249052842e+01
2.930000000000000000e+02 1.600652240663909254e+02
2.940000000000000000e+02 2.411586763485474307e+02
2.950000000000000000e+02 3.538571908713693688e+02
2.960000000000000000e+02 4.542788672199173448e+02
2.970000000000000000e+02 5.356055590062103420e+02
2.980000000000000000e+02 6.221643526970952962e+02
2.990000000000000000e+02 7.294947385892113516e+02
3.000000000000000000e+02 8.358632925311201234e+02
3.010000000000000000e+02 9.647222323651446914e+02
3.020000000000000000e+02 1.094735037267082816e+03
3.030000000000000000e+02 1.173065082987552159e+03
3.040000000000000000e+02 1.174733975103734338e+03
3.050000000000000000e+02 1.170739742738589030e+03
3.060000000000000000e+02 1.169529844398340174e+03
3.070000000000000000e+02 1.169355240663900304e+03
3.080000000000000000e+02 1.166118796680497780e+03
3.090000000000000000e+02 1.093509201244812630e+03
3.100000000000000000e+02 1.045068394190871231e+03
3.110000000000000000e+02 9.848338423236510835e+02
3.120000000000000000e+02 8.749386016597505886e+02
3.130000000000000000e+02 7.496124979253108904e+02
3.140000000000000000e+02 6.484955093167683344e+02
3.150000000000000000e+02 5.996255082987545393e+02
3.160000000000000000e+02 6.331793713692961774e+02
3.170000000000000000e+02 6.995232448132758236e+02
3.180000000000000000e+02 6.128716397515527206e+02
3.190000000000000000e+02 6.659154273858920305e+02
3.200000000000000000e+02 7.195960871369295546e+02
3.210000000000000000e+02 7.615302282157682612e+02
3.220000000000000000e+02 8.721172863070552239e+02
3.230000000000000000e+02 9.984768049792543252e+02
3.240000000000000000e+02 1.114921414937760119e+03
3.250000000000000000e+02 1.195048510373444515e+03
3.260000000000000000e+02 1.248210571428572848e+03
3.270000000000000000e+02 1.293925751037344980e+03
3.280000000000000000e+02 1.287190912863070253e+03
3.290000000000000000e+02 1.277203605809128476e+03
3.300000000000000000e+02 1.230845559006213307e+03
3.310000000000000000e+02 1.164206508298755125e+03
3.320000000000000000e+02 1.139537408713692912e+03
3.330000000000000000e+02 1.161583425311202973e+03
3.340000000000000000e+02 1.263864390041492697e+03
3.350000000000000000e+02 1.376744522821577903e+03
3.360000000000000000e+02 1.459813751037345810e+03
3.370000000000000000e+02 1.560598369294604481e+03
3.380000000000000000e+02 1.664614141078837292e+03
3.390000000000000000e+02 1.727548389233954822e+03
3.400000000000000000e+02 1.771690178423235466e+03
3.410000000000000000e+02 1.779281371369295584e+03
3.420000000000000000e+02 1.652167010373447056e+03
3.430000000000000000e+02 1.514446540372670825e+03
3.440000000000000000e+02 1.417397066390041346e+03
3.450000000000000000e+02 1.326958265560166183e+03
3.460000000000000000e+02 1.216484850622406839e+03
3.470000000000000000e+02 1.138028329192546607e+03
3.480000000000000000e+02 1.135984410788381410e+03
3.490000000000000000e+02 1.135902358921161976e+03
3.500000000000000000e+02 1.139138659751037039e+03
3.510000000000000000e+02 1.146053204968945238e+03
3.520000000000000000e+02 1.064758763485478539e+03
3.530000000000000000e+02 1.005324634854772512e+03
3.540000000000000000e+02 9.038750165975126265e+02
3.550000000000000000e+02 8.040881304347824425e+02
3.560000000000000000e+02 7.560360020746886676e+02
3.570000000000000000e+02 6.344947012448126316e+02
3.580000000000000000e+02 5.148139087136923990e+02
3.590000000000000000e+02 3.742198819875765707e+02
3.600000000000000000e+02 2.493680954356858592e+02
3.610000000000000000e+02 1.871494232365153891e+02
3.620000000000000000e+02 1.315035726141082364e+02
3.630000000000000000e+02 1.424138464730288831e+02
3.640000000000000000e+02 1.155841307053949549e+02
3.650000000000000000e+02 5.290354356846513184e+01
3.660000000000000000e+02 1.928936514522862922e+01
3.670000000000000000e+02 4.021167634854710826e+01
3.680000000000000000e+02 4.530155693581769327e+01
3.690000000000000000e+02 4.794166804979262508e+01
3.700000000000000000e+02 4.228482157676329223e+01
3.710000000000000000e+02 1.626906211180120110e+01
3.720000000000000000e+02 3.488825726140357908e+00
3.730000000000000000e+02 5.905846058091226780e+01
3.740000000000000000e+02 6.309522199170184109e+01
3.750000000000000000e+02 2.077627593361010838e+01
3.760000000000000000e+02 1.611987966804970895e+01
3.770000000000000000e+02 5.483578423236507149e+01
3.780000000000000000e+02 1.738192531120366624e+01
3.790000000000000000e+02 2.078724896265564936e+01
3.800000000000000000e+02 1.151984472049686659e+01
3.810000000000000000e+02 1.587352489626557528e+01
3.820000000000000000e+02 1.389804149377590292e+01
3.830000000000000000e+02 6.818999999999906692e+00
3.840000000000000000e+02 2.036164596273336613e+01
3.850000000000000000e+02 3.428576763485514078e+01
3.860000000000000000e+02 1.944074273858874236e+01
3.870000000000000000e+02 7.031425726141063137e+01
3.880000000000000000e+02 4.973726501035267944e+01
3.890000000000000000e+02 4.035159958506227440e+01
3.900000000000000000e+02 7.204537551867220202e+01
3.910000000000000000e+02 8.036555394190872903e+01
3.920000000000000000e+02 4.971885921325007729e+01
3.930000000000000000e+02 3.775295435684647316e+01
3.940000000000000000e+02 4.187550622406642731e+01
3.950000000000000000e+02 5.992778423236545393e+01
3.960000000000000000e+02 9.627185892116234811e+01
3.970000000000000000e+02 1.296903229813660232e+02
3.980000000000000000e+02 1.441232116182572156e+02
3.990000000000000000e+02 1.447384024896265942e+02
4.000000000000000000e+02 1.314679689440998516e+02
4.010000000000000000e+02 1.058791784232365671e+02
4.020000000000000000e+02 1.307538672199172822e+02
4.030000000000000000e+02 1.959127344398343951e+02
4.040000000000000000e+02 2.095240871369291824e+02
4.050000000000000000e+02 2.134175228215769948e+02
4.060000000000000000e+02 2.914408278008302773e+02
4.070000000000000000e+02 3.042894626556017101e+02
4.080000000000000000e+02 3.423405767634862400e+02
4.090000000000000000e+02 4.086099648033118115e+02
4.100000000000000000e+02 5.070613900414927002e+02
4.110000000000000000e+02 6.375470954356837865e+02
4.120000000000000000e+02 7.396448257261404251e+02
4.130000000000000000e+02 8.948987701863339908e+02
4.140000000000000000e+02 1.099479995850625073e+03
4.150000000000000000e+02 1.317483321576765775e+03
4.160000000000000000e+02 1.568322968879671862e+03
4.170000000000000000e+02 1.958323670807461667e+03
4.180000000000000000e+02 2.314063742738591372e+03
4.190000000000000000e+02 2.669541958506227729e+03
4.200000000000000000e+02 3.149690195020754800e+03
4.210000000000000000e+02 3.828690333333327089e+03
4.220000000000000000e+02 4.684765074688793902e+03
4.230000000000000000e+02 5.696678767634850374e+03
4.240000000000000000e+02 6.938568985477171736e+03
4.250000000000000000e+02 8.309601605809126340e+03
4.260000000000000000e+02 9.494633688796695424e+03
4.270000000000000000e+02 9.886723879668043082e+03
4.280000000000000000e+02 8.877919473029021901e+03
4.290000000000000000e+02 7.205165053941880615e+03
4.300000000000000000e+02 5.545241184647294176e+03
4.310000000000000000e+02 4.278180686721981147e+03
4.320000000000000000e+02 3.456897408713684399e+03
4.330000000000000000e+02 2.955385506224060009e+03
4.340000000000000000e+02 2.638653526970953862e+03
4.350000000000000000e+02 2.498247788381742339e+03
4.360000000000000000e+02 2.533291950207469199e+03
4.370000000000000000e+02 2.662874456431535691e+03
4.380000000000000000e+02 2.771650871369297874e+03
4.390000000000000000e+02 2.937738842323656627e+03
4.400000000000000000e+02 3.208138107883825342e+03
4.410000000000000000e+02 3.617407582987562819e+03
4.420000000000000000e+02 4.208733828157342032e+03
4.430000000000000000e+02 5.026031518672207312e+03
4.440000000000000000e+02 5.970082481327814094e+03
4.450000000000000000e+02 7.225303522821555816e+03
4.460000000000000000e+02 8.701562418219460596e+03
4.470000000000000000e+02 9.914300192946064271e+03
4.480000000000000000e+02 1.016624699377593242e+04
4.490000000000000000e+02 9.240055506224069177e+03
4.500000000000000000e+02 7.728866217391268037e+03
4.510000000000000000e+02 6.091784551867174741e+03
4.520000000000000000e+02 4.608039979253142519e+03
4.530000000000000000e+02 3.529594398340267617e+03
4.540000000000000000e+02 2.782339941908725450e+03
4.550000000000000000e+02 2.191069066390045464e+03
4.560000000000000000e+02 1.736178802904567192e+03
4.570000000000000000e+02 1.413430244813280524e+03
4.580000000000000000e+02 1.157171126556018635e+03
4.590000000000000000e+02 9.775420165975119744e+02
4.600000000000000000e+02 8.132242614107894951e+02
4.610000000000000000e+02 6.908782448132783429e+02
4.620000000000000000e+02 6.067601950207468917e+02
4.630000000000000000e+02 5.159849398340268181e+02
4.640000000000000000e+02 4.493399356846487080e+02
4.650000000000000000e+02 4.005893360995860348e+02
4.660000000000000000e+02 3.536811014492764116e+02
4.670000000000000000e+02 3.095918796680498417e+02
4.680000000000000000e+02 2.789731203319502129e+02
4.690000000000000000e+02 2.663700580912864098e+02
4.700000000000000000e+02 2.087490829875521001e+02
4.710000000000000000e+02 1.598805341614904876e+02
4.720000000000000000e+02 1.640824605809125387e+02
4.730000000000000000e+02 1.886866950207469245e+02
4.740000000000000000e+02 1.330692593360996057e+02
4.750000000000000000e+02 8.668056521739217146e+01
4.760000000000000000e+02 4.903823236514585915e+01
4.770000000000000000e+02 5.579117427385826034e+01
4.780000000000000000e+02 8.081794190871374894e+01
4.790000000000000000e+02 2.869182365145221070e+01
4.800000000000000000e+02 1.770792323651445344e+01
4.810000000000000000e+02 1.673221369294617489e+01
4.820000000000000000e+02 4.789451867219919023e+01
4.830000000000000000e+02 4.582842028985513139e+01
4.840000000000000000e+02 2.904067634854759916e+01
4.850000000000000000e+02 9.635087136929621821e+00
4.860000000000000000e+02 5.504741908713688758e+01
4.870000000000000000e+02 5.471929045643136647e+01
4.880000000000000000e+02 3.409875311203308712e+01
4.890000000000000000e+02 6.793461825726087966e+01
4.900000000000000000e+02 1.225257614107877941e+02
4.910000000000000000e+02 1.280554066390042749e+02
4.920000000000000000e+02 9.458104149377562919e+01
4.930000000000000000e+02 7.844684647302923963e+01
4.940000000000000000e+02 1.015479419087138950e+02
4.950000000000000000e+02 1.103107370600407648e+02
4.960000000000000000e+02 4.514389626556053514e+01
4.970000000000000000e+02 4.917788589211598804e+01
4.980000000000000000e+02 6.958996058091285875e+01
4.990000000000000000e+02 5.897934439834020282e+01
5.000000000000000000e+02 3.697204347826118465e+01
5.010000000000000000e+02 2.978980912863058705e+01
5.020000000000000000e+02 5.069082987551814767e+01
5.030000000000000000e+02 1.072055684647299358e+02
5.040000000000000000e+02 1.552925590062118033e+02
5.050000000000000000e+02 2.219858609958516809e+02
5.060000000000000000e+02 3.312171659751069797e+02
5.070000000000000000e+02 6.177562261410829478e+02
5.080000000000000000e+02 9.389467219916990643e+02
5.090000000000000000e+02 1.032969265560166832e+03
5.100000000000000000e+02 1.016866946058090889e+03
5.110000000000000000e+02 1.292989958506224639e+03
5.120000000000000000e+02 1.617800954451342022e+03
5.130000000000000000e+02 1.937173840248973647e+03
5.140000000000000000e+02 2.385376460580901949e+03
5.150000000000000000e+02 2.992356412863096921e+03
5.160000000000000000e+02 3.685777242738579389e+03
5.170000000000000000e+02 4.377539792531100829e+03
5.180000000000000000e+02 5.017524468879677443e+03
5.190000000000000000e+02 5.012259012448150315e+03
5.200000000000000000e+02 4.178164394190839630e+03
5.210000000000000000e+02 3.487962047717836413e+03
5.220000000000000000e+02 4.273656423236513547e+03
5.230000000000000000e+02 3.740731026970953280e+03
5.240000000000000000e+02 2.741338582987537393e+03
5.250000000000000000e+02 2.297453900414940563e+03
5.260000000000000000e+02 2.511129402489619224e+03
5.270000000000000000e+02 2.966252979253133617e+03
5.280000000000000000e+02 3.636893178423225891e+03
5.290000000000000000e+02 4.556709495850604981e+03
5.300000000000000000e+02 5.499264502074703159e+03
5.310000000000000000e+02 6.272564948132760037e+03
5.320000000000000000e+02 6.614708709543572695e+03
5.330000000000000000e+02 6.236726228215773517e+03
5.340000000000000000e+02 5.221395917012406244e+03
5.350000000000000000e+02 4.086655518672198014e+03
5.360000000000000000e+02 3.115414966804956293e+03
5.370000000000000000e+02 2.442780134854757307e+03
5.380000000000000000e+02 2.082660952282163180e+03
5.390000000000000000e+02 1.885720858921155468e+03
5.400000000000000000e+02 1.738497740663902050e+03
5.410000000000000000e+02 1.725441459627328413e+03
5.420000000000000000e+02 1.754024211618257368e+03
5.430000000000000000e+02 1.750340854771784279e+03
5.440000000000000000e+02 1.761231912863071102e+03
5.450000000000000000e+02 1.826392618257259528e+03
5.460000000000000000e+02 1.892096514522822872e+03
5.470000000000000000e+02 1.870850734439834014e+03
5.480000000000000000e+02 1.829892336099585691e+03
5.490000000000000000e+02 1.843218688796680681e+03
5.500000000000000000e+02 1.848959950207469547e+03
5.510000000000000000e+02 1.774946999999998297e+03
5.520000000000000000e+02 1.802753692946056844e+03
5.530000000000000000e+02 1.829434443983403071e+03
5.540000000000000000e+02 1.826793780082987951e+03
5.550000000000000000e+02 1.863662622406638775e+03
5.560000000000000000e+02 1.880506006224066823e+03
5.570000000000000000e+02 1.930064232365143198e+03
5.580000000000000000e+02 2.008810307053946417e+03
5.590000000000000000e+02 2.080742999999999938e+03
5.600000000000000000e+02 2.175150431535258576e+03
5.610000000000000000e+02 2.370603031055901738e+03
5.620000000000000000e+02 2.485802060165971852e+03
5.630000000000000000e+02 2.648129141078838984e+03
5.640000000000000000e+02 2.864310066390037719e+03
5.650000000000000000e+02 3.125004829875517316e+03
5.660000000000000000e+02 3.426776883817432463e+03
5.670000000000000000e+02 3.760229439834011828e+03
5.680000000000000000e+02 4.108223850622414830e+03
5.690000000000000000e+02 4.611881738589193446e+03
5.700000000000000000e+02 5.234830376811565657e+03
5.710000000000000000e+02 5.897878136929460197e+03
5.720000000000000000e+02 6.609573010373405850e+03
5.730000000000000000e+02 7.518530570539425753e+03
5.740000000000000000e+02 8.432797681159383501e+03
5.750000000000000000e+02 9.201667186722002953e+03
5.760000000000000000e+02 9.745030360995844603e+03
5.770000000000000000e+02 9.983687058091287327e+03
5.780000000000000000e+02 9.881482941908714565e+03
5.790000000000000000e+02 9.737160819502079903e+03
5.800000000000000000e+02 9.650553174273858531e+03
5.810000000000000000e+02 9.792281477178414207e+03
5.820000000000000000e+02 1.016345124066391327e+04
5.830000000000000000e+02 1.062891834024896343e+04
5.840000000000000000e+02 1.104536834854770314e+04
5.850000000000000000e+02 1.119325756016597552e+04
5.860000000000000000e+02 1.119228923809524349e+04
5.870000000000000000e+02 1.100642981535268700e+04
5.880000000000000000e+02 1.061791471576764525e+04
5.890000000000000000e+02 1.010680655186721197e+04
5.900000000000000000e+02 9.767641414078674643e+03
5.910000000000000000e+02 9.704962970954353295e+03
5.920000000000000000e+02 1.001647985892117322e+04
5.930000000000000000e+02 1.082705743153523326e+04
5.940000000000000000e+02 1.197160778008302077e+04
5.950000000000000000e+02 1.300151189211618112e+04
5.960000000000000000e+02 1.351945655186721342e+04
5.970000000000000000e+02 1.308924076348547169e+04
5.980000000000000000e+02 1.173752456224072193e+04
5.990000000000000000e+02 9.880257728778398814e+03
6.000000000000000000e+02 8.015590170124508404e+03
6.010000000000000000e+02 6.476792435684607881e+03
6.020000000000000000e+02 5.281134892116192532e+03
6.030000000000000000e+02 4.406883372670788049e+03
6.040000000000000000e+02 3.720485765560153141e+03
6.050000000000000000e+02 3.188309823651466559e+03
6.060000000000000000e+02 2.793282377593350247e+03
6.070000000000000000e+02 2.488446147302908685e+03
6.080000000000000000e+02 2.508650701244811444e+03
6.090000000000000000e+02 2.921726721991703471e+03
6.100000000000000000e+02 2.536989543568488443e+03
6.110000000000000000e+02 1.741646282157669930e+03
6.120000000000000000e+02 1.518067904564318496e+03
6.130000000000000000e+02 1.355152512448129983e+03
6.140000000000000000e+02 1.315094234439834281e+03
6.150000000000000000e+02 1.311877147302904177e+03
6.160000000000000000e+02 1.261062771784230335e+03
6.170000000000000000e+02 1.188320908713693598e+03
6.180000000000000000e+02 1.146179448132777452e+03
6.190000000000000000e+02 1.014872202898552928e+03
6.200000000000000000e+02 8.727973858921163810e+02
6.210000000000000000e+02 7.708832863070535950e+02
6.220000000000000000e+02 6.963743381742746124e+02
6.230000000000000000e+02 6.076179377593348363e+02
6.240000000000000000e+02 4.928809875518691115e+02
6.250000000000000000e+02 4.041141410788353028e+02
6.260000000000000000e+02 4.060999626556014164e+02
6.270000000000000000e+02 4.331547800829880543e+02
6.280000000000000000e+02 4.138699626556003182e+02
6.290000000000000000e+02 4.569637323651362522e+02
6.300000000000000000e+02 6.609261473029033596e+02
6.310000000000000000e+02 5.407320394190899151e+02
6.320000000000000000e+02 5.133776770186334488e+02
6.330000000000000000e+02 5.606492489626558609e+02
6.340000000000000000e+02 6.136315643153527617e+02
6.350000000000000000e+02 6.324148340248960949e+02
6.360000000000000000e+02 5.935380871369297893e+02
6.370000000000000000e+02 5.718898900414923219e+02
6.380000000000000000e+02 4.828136950207481277e+02
6.390000000000000000e+02 4.548942302904570170e+02
6.400000000000000000e+02 4.254206418219465604e+02
6.410000000000000000e+02 3.343570746887996279e+02
6.420000000000000000e+02 2.509066970954336284e+02
6.430000000000000000e+02 1.799620663900427928e+02
6.440000000000000000e+02 1.442441452282142791e+02
6.450000000000000000e+02 5.149697302904516505e+01
6.460000000000000000e+02 4.001002697095488969e+01
6.470000000000000000e+02 6.921857676348564326e+01
6.480000000000000000e+02 7.548645962732918235e+01
6.490000000000000000e+02 6.918602904564332334e+01
6.500000000000000000e+02 1.033449709543562847e+02
6.510000000000000000e+02 1.328401867219926373e+02
6.520000000000000000e+02 1.250083485477179721e+02
6.530000000000000000e+02 1.178397883817422098e+02
6.540000000000000000e+02 1.590465643153520716e+02
6.550000000000000000e+02 1.303871493775937438e+02
6.560000000000000000e+02 1.288419813664597200e+02
6.570000000000000000e+02 1.415483900414938034e+02
6.580000000000000000e+02 1.057221576763460860e+02
6.590000000000000000e+02 4.008172614107867560e+01
6.600000000000000000e+02 3.360051452282142037e+01
6.610000000000000000e+02 1.669318879667997635e+01
6.620000000000000000e+02 1.583025518672197940e+01
6.630000000000000000e+02 2.101674481327782473e+01
6.640000000000000000e+02 5.812393153526950584e+01
6.650000000000000000e+02 8.510918633540336486e+01
6.660000000000000000e+02 1.029073443983409106e+02
6.670000000000000000e+02 1.729397302904559695e+02
6.680000000000000000e+02 1.729765850622408152e+02
6.690000000000000000e+02 1.953832298136636609e+02
6.700000000000000000e+02 2.733284045643196123e+02
6.710000000000000000e+02 3.680594315352702779e+02
6.720000000000000000e+02 4.472852987551808610e+02
6.730000000000000000e+02 5.874990995850639592e+02
6.740000000000000000e+02 6.383517344398336490e+02
6.750000000000000000e+02 6.873616846473014448e+02
6.760000000000000000e+02 8.026956846473019596e+02
6.770000000000000000e+02 8.899520579710144830e+02
6.780000000000000000e+02 9.043230062240679672e+02
6.790000000000000000e+02 1.075528002074684764e+03
6.800000000000000000e+02 1.081860452282156757e+03
6.810000000000000000e+02 1.120279256728777909e+03
6.820000000000000000e+02 1.102334539419091470e+03
6.830000000000000000e+02 1.052138203319502281e+03
6.840000000000000000e+02 1.073313153526969245e+03
6.850000000000000000e+02 1.110520130434782232e+03
6.860000000000000000e+02 1.130768682572614125e+03
6.870000000000000000e+02 1.111667400414938129e+03
6.880000000000000000e+02 1.071306070539419352e+03
6.890000000000000000e+02 1.060348134854771388e+03
6.900000000000000000e+02 1.112193746887968700e+03
6.910000000000000000e+02 1.199838531120329662e+03
6.920000000000000000e+02 1.250379327800831334e+03
6.930000000000000000e+02 1.303540531120330570e+03
6.940000000000000000e+02 1.343813493775932102e+03
6.950000000000000000e+02 1.383571329875519268e+03
6.960000000000000000e+02 1.424620022821575958e+03
6.970000000000000000e+02 1.442420558091286694e+03
6.980000000000000000e+02 1.474854095238093123e+03
6.990000000000000000e+02 1.576483742738589626e+03
7.000000000000000000e+02 1.623007892116182575e+03
7.010000000000000000e+02 1.620622174273858946e+03
7.020000000000000000e+02 1.651370120331950147e+03
7.030000000000000000e+02 1.710313134854771306e+03
7.040000000000000000e+02 1.669721468879666418e+03
7.050000000000000000e+02 1.633567479253112879e+03
7.060000000000000000e+02 1.616447896265559848e+03
7.070000000000000000e+02 1.571766717842323033e+03
7.080000000000000000e+02 1.511947149377594769e+03
7.090000000000000000e+02 1.462053074688795277e+03
7.100000000000000000e+02 1.361996318840583854e+03
7.110000000000000000e+02 1.231990761410786490e+03
7.120000000000000000e+02 1.108606516597511245e+03
7.130000000000000000e+02 9.640623796680489477e+02
7.140000000000000000e+02 8.371866169772249577e+02
7.150000000000000000e+02 7.100208008298816367e+02
7.160000000000000000e+02 4.992312863070484354e+02
7.170000000000000000e+02 3.819435352697116741e+02
7.180000000000000000e+02 3.020471037344372007e+02
7.190000000000000000e+02 2.515081701244809835e+02
7.200000000000000000e+02 2.095641244813294861e+02
7.210000000000000000e+02 1.667375020746881944e+02
7.220000000000000000e+02 1.287715684647313878e+02
7.230000000000000000e+02 1.017761327800821931e+02
7.240000000000000000e+02 7.446122406639010194e+01
7.250000000000000000e+02 9.268437344398371636e+01
7.260000000000000000e+02 6.452759336099589405e+01
7.270000000000000000e+02 3.020031884058015947e+01
7.280000000000000000e+02 6.926541701244954652e+01
7.290000000000000000e+02 1.070520165975098905e+02
7.300000000000000000e+02 1.063003360995846265e+02
7.310000000000000000e+02 8.496613692946097274e+01
7.320000000000000000e+02 6.455300000000050886e+01
7.330000000000000000e+02 7.650692946058143207e+01
7.340000000000000000e+02 9.293148547717844110e+01
7.350000000000000000e+02 4.388960869565064371e+01
7.360000000000000000e+02 3.139725933609982533e+01
7.370000000000000000e+02 3.850935269709739828e+01
7.380000000000000000e+02 6.704941908713693977e+01
7.390000000000000000e+02 7.070154658385138191e+01
7.400000000000000000e+02 7.838991286307017958e+01
7.410000000000000000e+02 8.638580912862965988e+01
7.420000000000000000e+02 1.294328215767641836e+02
7.430000000000000000e+02 1.067128198757764181e+02
7.440000000000000000e+02 1.277198278008292647e+02
7.450000000000000000e+02 1.349445082987550393e+02
7.460000000000000000e+02 1.850758049792507620e+02
7.470000000000000000e+02 2.622976597510382248e+02
7.480000000000000000e+02 2.586110165975102859e+02
7.490000000000000000e+02 2.806056348547737684e+02
7.500000000000000000e+02 3.404376390041492755e+02
7.510000000000000000e+02 4.312570041493810322e+02
7.520000000000000000e+02 5.585217095435727970e+02
7.530000000000000000e+02 6.681267261410774836e+02
7.540000000000000000e+02 7.581977925311261970e+02
7.550000000000000000e+02 9.196873921161808312e+02
7.560000000000000000e+02 9.776314161490676042e+02
7.570000000000000000e+02 1.112146572614110028e+03
7.580000000000000000e+02 1.217297099585061233e+03
7.590000000000000000e+02 1.291044406639005729e+03
7.600000000000000000e+02 1.363611929460579177e+03
7.610000000000000000e+02 1.412016695020748330e+03
7.620000000000000000e+02 1.405678863070539364e+03
7.630000000000000000e+02 1.432769792531120856e+03
7.640000000000000000e+02 1.427683086956521493e+03
7.650000000000000000e+02 1.362116170124483233e+03
7.660000000000000000e+02 1.359059265560170843e+03
7.670000000000000000e+02 1.412280489626557483e+03
7.680000000000000000e+02 1.316061486542443163e+03
7.690000000000000000e+02 1.287138298755186270e+03
7.700000000000000000e+02 1.239591143153526900e+03
7.710000000000000000e+02 1.254878848547718917e+03
7.720000000000000000e+02 1.265580223602484693e+03
7.730000000000000000e+02 1.236064846473027274e+03
7.740000000000000000e+02 1.212206663900414924e+03
7.750000000000000000e+02 1.222024946058094883e+03
7.760000000000000000e+02 1.152359683229813527e+03
7.770000000000000000e+02 1.173952968879668106e+03
7.780000000000000000e+02 1.104648118257260421e+03
7.790000000000000000e+02 1.036558547717841975e+03
7.800000000000000000e+02 1.120087253112032613e+03
7.810000000000000000e+02 1.240052821576763108e+03
7.820000000000000000e+02 1.113595269709549939e+03
7.830000000000000000e+02 9.753838713692923648e+02
7.840000000000000000e+02 9.014654356846489236e+02
7.850000000000000000e+02 8.510552774327144334e+02
7.860000000000000000e+02 8.252445041493775761e+02
7.870000000000000000e+02 7.917912323651484030e+02
7.880000000000000000e+02 7.066343464730286996e+02
7.890000000000000000e+02 6.988171511387170085e+02
7.900000000000000000e+02 6.936811120331962002e+02
7.910000000000000000e+02 6.870350373444014167e+02
7.920000000000000000e+02 6.466227344398338346e+02
7.930000000000000000e+02 5.252800683229811511e+02
7.940000000000000000e+02 5.045405373444040720e+02
7.950000000000000000e+02 4.592384999999996467e+02
7.960000000000000000e+02 4.277192655601674574e+02
7.970000000000000000e+02 3.576786376811616606e+02
7.980000000000000000e+02 3.483207427385891037e+02
7.990000000000000000e+02 3.099524730290486332e+02
8.000000000000000000e+02 2.581466473029044550e+02
8.010000000000000000e+02 2.460310476190481950e+02
8.020000000000000000e+02 2.061220975103740329e+02
8.030000000000000000e+02 2.435015248962635610e+02
8.040000000000000000e+02 3.510976639004155686e+02
8.050000000000000000e+02 2.354118550724650163e+02
8.060000000000000000e+02 8.499542738589484259e+01
8.070000000000000000e+02 5.879414937759402449e+01
8.080000000000000000e+02 7.562762655601731865e+01
8.090000000000000000e+02 4.886339419087135383e+01
8.100000000000000000e+02 7.224653319502066040e+01
8.110000000000000000e+02 4.926605809128720637e+01
8.120000000000000000e+02 3.887114522821578078e+01
8.130000000000000000e+02 1.688590041493897331e+01
8.140000000000000000e+02 3.109586956521657441e+01
8.150000000000000000e+02 3.933178008298651207e+01
8.160000000000000000e+02 4.719316597510379552e+01
8.170000000000000000e+02 4.590851452282188916e+01
8.180000000000000000e+02 1.774083229813684426e+01
8.190000000000000000e+02 1.191404917012474414e+02
8.200000000000000000e+02 1.379283029045691649e+02
8.210000000000000000e+02 4.504168879667992798e+01
8.220000000000000000e+02 4.683648033126249288e+01
8.230000000000000000e+02 6.184339834024935101e+01
8.240000000000000000e+02 4.885543983402478574e+01
8.250000000000000000e+02 3.548944813278072274e+01
8.260000000000000000e+02 1.376042236024793652e+01
8.270000000000000000e+02 3.385598755186571651e+01
8.280000000000000000e+02 6.467213692946049264e+01
8.290000000000000000e+02 3.436232780082962535e+01
8.300000000000000000e+02 4.520737759336239492e+01
8.310000000000000000e+02 4.874643153526854178e+00
8.320000000000000000e+02 8.933228215766661151e+00
8.330000000000000000e+02 5.106258921161919773e+01
8.340000000000000000e+02 2.851229045643194482e+01
8.350000000000000000e+02 1.564011825726139371e+01
8.360000000000000000e+02 4.137985477178426663e+01
8.370000000000000000e+02 4.277601244813259740e+01
8.380000000000000000e+02 3.108192546583956073e+01
8.390000000000000000e+02 7.914672199171139511e+00
8.400000000000000000e+02 2.403126556016684390e+01
8.410000000000000000e+02 8.918775933610508133e+00
8.420000000000000000e+02 5.044340248962340567e+00
8.430000000000000000e+02 2.634951867219978539e+01
8.440000000000000000e+02 3.303634439834249292e+01
8.450000000000000000e+02 6.216208298755148576e+01
8.460000000000000000e+02 1.351637759335859101e+01
8.470000000000000000e+02 1.835507468879594484e+01
8.480000000000000000e+02 3.012132780082993122e+01
8.490000000000000000e+02 3.765026141078827493e+01
8.500000000000000000e+02 3.766795020746922518e+01
8.510000000000000000e+02 5.389399171842607217e+01
8.520000000000000000e+02 7.093182572614124126e+01
8.530000000000000000e+02 8.050940041493790034e+01
8.540000000000000000e+02 9.102010373444055347e+01
8.550000000000000000e+02 5.524121739130318787e+01
8.560000000000000000e+02 3.902627385891935319e+01
8.570000000000000000e+02 6.643356846472912025e+01
8.580000000000000000e+02 5.380802489626309892e+01
8.590000000000000000e+02 1.348834792531120570e+02
8.600000000000000000e+02 9.018487136929451253e+01
8.610000000000000000e+02 4.782318049792511516e+01
8.620000000000000000e+02 7.163294813278054107e+01
8.630000000000000000e+02 1.275559958506210876e+02
8.640000000000000000e+02 1.612027759336101838e+02
8.650000000000000000e+02 1.613504688796679432e+02
8.660000000000000000e+02 1.805288713692957856e+02
8.670000000000000000e+02 2.107698778467912462e+02
8.680000000000000000e+02 1.891454854771794771e+02
8.690000000000000000e+02 1.639032987551862561e+02
8.700000000000000000e+02 1.931406929460563049e+02
8.710000000000000000e+02 2.405782981366462820e+02
8.720000000000000000e+02 2.420790788381742402e+02
8.730000000000000000e+02 2.157012240663897558e+02
8.740000000000000000e+02 2.250028423236518336e+02
8.750000000000000000e+02 2.980196058091298710e+02
8.760000000000000000e+02 3.160203962655593841e+02
8.770000000000000000e+02 2.815555975103741275e+02
8.780000000000000000e+02 2.789870892116198888e+02
8.790000000000000000e+02 3.053793340248961954e+02
8.800000000000000000e+02 2.954831925465841778e+02
8.810000000000000000e+02 2.847900746887966079e+02
8.820000000000000000e+02 3.015500331950202053e+02
8.830000000000000000e+02 3.661048879668052791e+02
8.840000000000000000e+02 3.007895331950206810e+02
8.850000000000000000e+02 2.440942883817585027e+02
8.860000000000000000e+02 4.438167199170127901e+02
8.870000000000000000e+02 4.549956535269753317e+02
8.880000000000000000e+02 4.483596058091283680e+02
8.890000000000000000e+02 4.625726473029042722e+02
8.900000000000000000e+02 4.603909253112034889e+02
8.910000000000000000e+02 4.471377551867220745e+02
8.920000000000000000e+02 5.034392240663896132e+02
8.930000000000000000e+02 5.420789896265556536e+02
8.940000000000000000e+02 5.315086742738582188e+02
8.950000000000000000e+02 5.772185746887978439e+02
8.960000000000000000e+02 5.507110000000000127e+02
8.970000000000000000e+02 5.819630539419068782e+02
8.980000000000000000e+02 6.110068008298758286e+02
8.990000000000000000e+02 6.804890539419055813e+02
9.000000000000000000e+02 6.518648571428589094e+02
9.010000000000000000e+02 5.884023464730280466e+02
9.020000000000000000e+02 6.280369958506225885e+02
9.030000000000000000e+02 5.726388672199176426e+02
9.040000000000000000e+02 5.198805601659753393e+02
9.050000000000000000e+02 5.450514647302914000e+02
9.060000000000000000e+02 5.579765477178424362e+02
9.070000000000000000e+02 5.179762074688779876e+02
9.080000000000000000e+02 5.248625933609943104e+02
9.090000000000000000e+02 5.352934886128387006e+02
9.100000000000000000e+02 4.479146742738595890e+02
9.110000000000000000e+02 5.447753091286294875e+02
9.120000000000000000e+02 5.370988983402482972e+02
9.130000000000000000e+02 4.841405560165982820e+02
9.140000000000000000e+02 4.567054896265559591e+02
9.150000000000000000e+02 4.319980414937762703e+02
9.160000000000000000e+02 3.783705394190874358e+02
9.170000000000000000e+02 3.346323278008297848e+02
9.180000000000000000e+02 3.395170912863073340e+02
9.190000000000000000e+02 3.087645829875507957e+02
9.200000000000000000e+02 2.762939813278019301e+02
9.210000000000000000e+02 1.371156431535332558e+02
9.220000000000000000e+02 9.657490871369316210e+01
9.230000000000000000e+02 1.057577219917026952e+02
9.240000000000000000e+02 8.435074688796633779e+01
9.250000000000000000e+02 5.034088589211675924e+01
9.260000000000000000e+02 8.650230290456102367e+00
9.270000000000000000e+02 4.889690871369172243e+00
9.280000000000000000e+02 2.598671784232382365e+01
9.290000000000000000e+02 3.943665217391315281e+01
9.300000000000000000e+02 7.704266390041307488e+01
9.310000000000000000e+02 8.704799585062150413e+01
9.320000000000000000e+02 5.869551452282189530e+01
9.330000000000000000e+02 3.808843568464600082e+01
9.340000000000000000e+02 3.840568464730270470e+00
9.350000000000000000e+02 3.925190248962503858e+01
9.360000000000000000e+02 3.750630082987532177e+01
9.370000000000000000e+02 4.480861825726099568e+01
9.380000000000000000e+02 5.247871784232334136e+01
9.390000000000000000e+02 4.931707053941902785e+01
9.400000000000000000e+02 4.529270954356882584e+01
9.410000000000000000e+02 4.672939004149385056e+01
9.420000000000000000e+02 2.203439626556032138e+01
9.430000000000000000e+02 3.102012655601686220e+01
9.440000000000000000e+02 3.210515352697075286e+01
9.450000000000000000e+02 8.741979875518947551e+01
9.460000000000000000e+02 1.382492173913043132e+02
9.470000000000000000e+02 1.878978755186705882e+02
9.480000000000000000e+02 2.343176473029048168e+02
9.490000000000000000e+02 2.497493858921148444e+02
9.500000000000000000e+02 3.261528215767640972e+02
9.510000000000000000e+02 3.338275643153526175e+02
9.520000000000000000e+02 3.534336058091298582e+02
9.530000000000000000e+02 4.057217821576761594e+02
9.540000000000000000e+02 4.470847219917003486e+02
9.550000000000000000e+02 4.937952033195040826e+02
9.560000000000000000e+02 5.985264439833983943e+02
9.570000000000000000e+02 7.339438755186752132e+02
9.580000000000000000e+02 8.044427660455482965e+02
9.590000000000000000e+02 9.044717344398324030e+02
9.600000000000000000e+02 1.096510674273861241e+03
9.610000000000000000e+02 1.212270553941907110e+03
9.620000000000000000e+02 1.227233141078837889e+03
9.630000000000000000e+02 1.388271373443980337e+03
9.640000000000000000e+02 1.687760244813286818e+03
9.650000000000000000e+02 1.889806834024895579e+03
9.660000000000000000e+02 2.116875360995860774e+03
9.670000000000000000e+02 2.436610002074698514e+03
9.680000000000000000e+02 2.821327365145216390e+03
9.690000000000000000e+02 3.351947082987572230e+03
9.700000000000000000e+02 3.974845446058078778e+03
9.710000000000000000e+02 4.650163688796680617e+03
9.720000000000000000e+02 5.469088091286317649e+03
9.730000000000000000e+02 6.552124946058080241e+03
9.740000000000000000e+02 7.838078431535293021e+03
9.750000000000000000e+02 9.058889018633541127e+03
9.760000000000000000e+02 1.066224771369302835e+04
9.770000000000000000e+02 1.235005735684646606e+04
9.780000000000000000e+02 1.404252727122161559e+04
9.790000000000000000e+02 1.587001241493780981e+04
9.800000000000000000e+02 1.779820089211613231e+04
9.810000000000000000e+02 1.959650804979258828e+04
9.820000000000000000e+02 2.116080970124478699e+04
9.830000000000000000e+02 2.243876420124482684e+04
9.840000000000000000e+02 2.317089162240664518e+04
9.850000000000000000e+02 2.336953048962655521e+04
9.860000000000000000e+02 2.310022437344397622e+04
9.870000000000000000e+02 2.253040909543569069e+04
9.880000000000000000e+02 2.180998369294602162e+04
9.890000000000000000e+02 2.123363358921161853e+04
9.900000000000000000e+02 2.103404884232364202e+04
9.910000000000000000e+02 2.096689976556017427e+04
9.920000000000000000e+02 2.136977995850620573e+04
9.930000000000000000e+02 2.212806202697099070e+04
9.940000000000000000e+02 2.333761187551864350e+04
9.950000000000000000e+02 2.486239084679090593e+04
9.960000000000000000e+02 2.670165547302906634e+04
9.970000000000000000e+02 2.895567212033198666e+04
9.980000000000000000e+02 3.154501699585067036e+04
9.990000000000000000e+02 3.433635693360985169e+04
1.000000000000000000e+03 3.751477989211634122e+04
1.001000000000000000e+03 4.066215669709542271e+04
1.002000000000000000e+03 4.325102922821566608e+04
1.003000000000000000e+03 4.496458221991701430e+04
1.004000000000000000e+03 4.499522218257265195e+04
1.005000000000000000e+03 4.328793782572607597e+04
1.006000000000000000e+03 4.006613210788390279e+04
1.007000000000000000e+03 3.555796328215761605e+04
1.008000000000000000e+03 3.080630558091282001e+04
1.009000000000000000e+03 2.648453258298772926e+04
1.010000000000000000e+03 2.259821626141072556e+04
1.011000000000000000e+03 1.941364110373454241e+04
1.012000000000000000e+03 1.700029501244817584e+04
1.013000000000000000e+03 1.511540805809129597e+04
1.014000000000000000e+03 1.351228958091291133e+04
1.015000000000000000e+03 1.211740814522821347e+04
1.016000000000000000e+03 1.096387103933749495e+04
1.017000000000000000e+03 1.001099130497922488e+04
1.018000000000000000e+03 9.188316275933626457e+03
1.019000000000000000e+03 8.456127728215751631e+03
1.020000000000000000e+03 7.847104298755182754e+03
1.021000000000000000e+03 7.502702775933618796e+03
1.022000000000000000e+03 7.239181365145222117e+03
1.023000000000000000e+03 6.927670792531129337e+03
1.024000000000000000e+03 6.669880751552784204e+03
1.025000000000000000e+03 6.341621043568472487e+03
1.026000000000000000e+03 6.018548263485495227e+03
1.027000000000000000e+03 5.740616414937759146e+03
1.028000000000000000e+03 5.475334977178406916e+03
1.029000000000000000e+03 5.229921846473048390e+03
1.030000000000000000e+03 4.949658991701250670e+03
1.031000000000000000e+03 4.593371609958489898e+03
1.032000000000000000e+03 4.193882041493746328e+03
1.033000000000000000e+03 3.765385607883841658e+03
1.034000000000000000e+03 3.187336778008288093e+03
1.035000000000000000e+03 2.534326246887922480e+03
1.036000000000000000e+03 2.029362446058130899e+03
1.037000000000000000e+03 1.628944336099587417e+03
1.038000000000000000e+03 1.392239103734431410e+03
1.039000000000000000e+03 1.161984572614114995e+03
1.040000000000000000e+03 9.134095975103840601e+02
1.041000000000000000e+03 7.228551369294543747e+02
1.042000000000000000e+03 5.728073713692788260e+02
1.043000000000000000e+03 5.251620518672228854e+02
1.044000000000000000e+03 4.563068900414950235e+02
1.045000000000000000e+03 3.056074356846399382e+02
1.046000000000000000e+03 2.377502821576771908e+02
1.047000000000000000e+03 2.558143568464720659e+02
1.048000000000000000e+03 2.393107178423220205e+02
1.049000000000000000e+03 2.033339585921325749e+02
1.050000000000000000e+03 1.637231431535357729e+02
1.051000000000000000e+03 6.680500000000000682e+01
1.052000000000000000e+03 1.024411369294627576e+02
1.053000000000000000e+03 1.130079834368532090e+02
1.054000000000000000e+03 5.781604979253253873e+01
1.055000000000000000e+03 5.323653112033250068e+01
1.056000000000000000e+03 1.961278008298139142e+01
1.057000000000000000e+03 1.843077593360755984e+01
1.058000000000000000e+03 2.699067634854712239e+01
1.059000000000000000e+03 1.924888381743186017e+01
1.060000000000000000e+03 7.174507053941528056e+01
1.061000000000000000e+03 9.004733609958641694e+01
1.062000000000000000e+03 3.694041908713459321e+01
1.063000000000000000e+03 1.148320331950228734e+01
1.064000000000000000e+03 4.704992946057851810e+01
1.065000000000000000e+03 4.552933609958490280e+01
1.066000000000000000e+03 7.552750414938458334e+01
1.067000000000000000e+03 9.892313070539624675e+01
1.068000000000000000e+03 7.217906224066422283e+01
1.069000000000000000e+03 5.547228423236427375e+01
1.070000000000000000e+03 4.211347717842356531e+01
1.071000000000000000e+03 6.670769709543509407e+01
1.072000000000000000e+03 1.247734854771769086e+01
1.073000000000000000e+03 2.266020331950420896e+01
1.074000000000000000e+03 5.111610373443708966e+01
1.075000000000000000e+03 1.210495601659750093e+02
1.076000000000000000e+03 2.070841120331995455e+02
1.077000000000000000e+03 3.251948132780122478e+02
1.078000000000000000e+03 4.963255465838456644e+02
1.079000000000000000e+03 7.280938464730429587e+02
1.080000000000000000e+03 1.147576502074724658e+03
1.081000000000000000e+03 1.384253232365130316e+03
1.082000000000000000e+03 1.650081107883821687e+03
1.083000000000000000e+03 2.051452535269742839e+03
1.084000000000000000e+03 2.464232838174241806e+03
1.085000000000000000e+03 2.705890582987549806e+03
1.086000000000000000e+03 2.686403142857136572e+03
1.087000000000000000e+03 2.425833966804949796e+03
1.088000000000000000e+03 2.007524701244837843e+03
1.089000000000000000e+03 1.583345439834022955e+03
1.090000000000000000e+03 1.266172354037242940e+03
1.091000000000000000e+03 9.443291348547930966e+02
1.092000000000000000e+03 7.591653900414960390e+02
1.093000000000000000e+03 6.265733340248907552e+02
1.094000000000000000e+03 5.110326024844756603e+02
1.095000000000000000e+03 5.940963526970856492e+02
1.096000000000000000e+03 6.320934356846439641e+02
1.097000000000000000e+03 4.042530041493613453e+02
1.098000000000000000e+03 3.038308008298800473e+02
1.099000000000000000e+03 3.281109045643154332e+02
1.100000000000000000e+03 2.664674066390041958e+02
1.101000000000000000e+03 2.969241784232396526e+02
1.102000000000000000e+03 3.329410788381745192e+02
1.103000000000000000e+03 2.842215435684619251e+02
1.104000000000000000e+03 2.700778713692985207e+02
1.105000000000000000e+03 2.674691244813319031e+02
1.106000000000000000e+03 2.725205103734429599e+02
1.107000000000000000e+03 3.189274688796662076e+02
1.108000000000000000e+03 2.670136908713699313e+02
1.109000000000000000e+03 2.923997821576753040e+02
1.110000000000000000e+03 3.008828112033196476e+02
1.111000000000000000e+03 2.926099128630702353e+02
1.112000000000000000e+03 3.796538672199120583e+02
1.113000000000000000e+03 4.481502323651454844e+02
1.114000000000000000e+03 5.269752946058163161e+02
1.115000000000000000e+03 6.322786273291832231e+02
1.116000000000000000e+03 7.218430809128618648e+02
1.117000000000000000e+03 8.159545394190926118e+02
1.118000000000000000e+03 9.829463236514513937e+02
1.119000000000000000e+03 1.227304848861271466e+03
1.120000000000000000e+03 1.455612929460586429e+03
1.121000000000000000e+03 1.844580493775970353e+03
1.122000000000000000e+03 2.400588879667997389e+03
1.123000000000000000e+03 2.942516797101445718e+03
1.124000000000000000e+03 3.683232753112083174e+03
1.125000000000000000e+03 4.679382068464618897e+03
1.126000000000000000e+03 5.857894105809063149e+03
1.127000000000000000e+03 7.226128850931697343e+03
1.128000000000000000e+03 8.406127132780113243e+03
1.129000000000000000e+03 8.613081925311249506e+03
1.130000000000000000e+03 7.545902701244829586e+03
1.131000000000000000e+03 5.939059684647225367e+03
1.132000000000000000e+03 4.564135618257369970e+03
1.133000000000000000e+03 3.675919085062263093e+03
1.134000000000000000e+03 3.317597464730287356e+03
1.135000000000000000e+03 3.291524817427386552e+03
1.136000000000000000e+03 3.517877120331928836e+03
1.137000000000000000e+03 4.083343041493778401e+03
1.138000000000000000e+03 4.822845688796731338e+03
1.139000000000000000e+03 5.767178739130334179e+03
1.140000000000000000e+03 6.647635551867209870e+03
1.141000000000000000e+03 6.940649618257248221e+03
1.142000000000000000e+03 6.273040707468830078e+03
1.143000000000000000e+03 4.940257342323746343e+03
1.144000000000000000e+03 3.559660734989642151e+03
1.145000000000000000e+03 2.494099775933542332e+03
1.146000000000000000e+03 1.804299157676394998e+03
1.147000000000000000e+03 1.332966850622419315e+03
1.148000000000000000e+03 9.658086086956387817e+02
1.149000000000000000e+03 7.926404398340339412e+02
1.150000000000000000e+03 6.480143443983467932e+02
1.151000000000000000e+03 5.566220601659741760e+02
1.152000000000000000e+03 4.005991035196529424e+02
1.153000000000000000e+03 3.047466431535320908e+02
1.154000000000000000e+03 2.299959128630712542e+02
1.155000000000000000e+03 2.142033858921177796e+02
1.156000000000000000e+03 2.115544782608668584e+02
1.157000000000000000e+03 1.398316286307092184e+02
1.158000000000000000e+03 6.216819087136840949e+01
1.159000000000000000e+03 5.228149585062357829e+01
1.160000000000000000e+03 6.577964730290477746e+01
1.161000000000000000e+03 4.660820746887961974e+01
1.162000000000000000e+03 6.463636929460732006e+01
1.163000000000000000e+03 7.505175933609950789e+01
1.164000000000000000e+03 3.837136929460804424e+01
1.165000000000000000e+03 2.004015352697093277e+01
1.166000000000000000e+03 2.019012448133502957e+01
1.167000000000000000e+03 2.618593775933459611e+01
1.168000000000000000e+03 4.819440372670814554e+01
1.169000000000000000e+03 4.438302904566431728e+00
1.170000000000000000e+03 3.903982572613541890e+01
1.171000000000000000e+03 8.594845643153540493e+01
1.172000000000000000e+03 4.255579668049734465e+01
1.173000000000000000e+03 6.898085507246308623e+01
1.174000000000000000e+03 3.307574688796985640e+01
1.175000000000000000e+03 3.610857676348585699e+01
1.176000000000000000e+03 4.163861825726015553e+01
1.177000000000000000e+03 1.233202898550874771e+01
1.178000000000000000e+03 3.597248962655605453e+00
1.179000000000000000e+03 9.270078838174955038e+00
1.180000000000000000e+03 9.064780082990969490e+00
1.181000000000000000e+03 2.977355394191040006e+01
1.182000000000000000e+03 6.174740663900410453e+01
1.183000000000000000e+03 2.520467012447695865e+01
1.184000000000000000e+03 8.355643153527859468e+00
1.185000000000000000e+03 4.833131055900560114e+01
1.186000000000000000e+03 2.499550207468762153e+01
1.187000000000000000e+03 1.785000414937696789e+01
1.188000000000000000e+03 2.264140663900340655e+01
1.189000000000000000e+03 3.819634439834125317e+01
1.190000000000000000e+03 6.723113485477281870e+01
1.191000000000000000e+03 4.138965352696830280e+01
1.192000000000000000e+03 4.376688381742729206e+01
1.193000000000000000e+03 2.990489233954360060e+01
1.194000000000000000e+03 1.622921576763485518e+01
1.195000000000000000e+03 1.528894190871453063e+01
1.196000000000000000e+03 3.179133609958645934e+01
1.197000000000000000e+03 4.306060041407824457e+01
1.198000000000000000e+03 1.737232572614251325e+01
1.199000000000000000e+03 2.823667427385932527e+01
1.200000000000000000e+03 6.242056846473138876e+01
1.201000000000000000e+03 8.503586721991644026e+01
1.202000000000000000e+03 7.663343478261008102e+01
1.203000000000000000e+03 1.027863070539394919e+01
1.204000000000000000e+03 6.444518257261847793e+01
1.205000000000000000e+03 4.546016597514210389e+00
1.206000000000000000e+03 1.210051966873756513e+01
1.207000000000000000e+03 9.289962863071046684e+01
1.208000000000000000e+03 1.307732531120339843e+02
1.209000000000000000e+03 8.010129253112185665e+01
1.210000000000000000e+03 5.795517012448316763e+01
1.211000000000000000e+03 9.890499585062450194e+01
1.212000000000000000e+03 1.071861244813300402e+02
1.213000000000000000e+03 6.735191286307032499e+01
1.214000000000000000e+03 7.723530848861609854e+01
1.215000000000000000e+03 1.087797012448128129e+02
1.216000000000000000e+03 9.093550414937769233e+01
1.217000000000000000e+03 1.004857863070543686e+02
1.218000000000000000e+03 5.077994605809571738e+01
1.219000000000000000e+03 5.520887966805040747e+01
1.220000000000000000e+03 8.207104149377526880e+01
1.221000000000000000e+03 1.097662780083031180e+02
1.222000000000000000e+03 1.197453850931713362e+02
1.223000000000000000e+03 1.021209149377596361e+02
1.224000000000000000e+03 1.364277448132798440e+02
1.225000000000000000e+03 1.338225580912919384e+02
1.226000000000000000e+03 7.023836853002245562e+01
1.227000000000000000e+03 3.999131950207536335e+01
1.228000000000000000e+03 9.864361825725895017e+01
1.229000000000000000e+03 1.456089917012433546e+02
1.230000000000000000e+03 9.546705394190877314e+01
1.231000000000000000e+03 1.061147323651485124e+02
1.232000000000000000e+03 1.387464564315327777e+02
1.233000000000000000e+03 1.394120456431537036e+02
1.234000000000000000e+03 1.550570311203327662e+02
1.235000000000000000e+03 1.210420622406761737e+02
1.236000000000000000e+03 7.317613692945690218e+01
1.237000000000000000e+03 1.420561286307060129e+02
1.238000000000000000e+03 1.371378464730206019e+02
1.239000000000000000e+03 5.087738174273837899e+01
1.240000000000000000e+03 4.537517634854759763e+01
1.241000000000000000e+03 8.953847717842870679e+01
1.242000000000000000e+03 1.089371991701219002e+02
1.243000000000000000e+03 1.360318053830226575e+02
1.244000000000000000e+03 1.037196804979264897e+02
1.245000000000000000e+03 9.510172614107747791e+01
1.246000000000000000e+03 9.638151867220290114e+01
1.247000000000000000e+03 1.242256542443056446e+02
1.248000000000000000e+03 1.331963921161768383e+02
1.249000000000000000e+03 9.389051452281643151e+01
1.250000000000000000e+03 1.353683091286311821e+02
1.251000000000000000e+03 1.424497763975178373e+02
1.252000000000000000e+03 2.041399999999998158e+02
1.253000000000000000e+03 1.320281908713741359e+02
1.254000000000000000e+03 7.851759336099591735e+01
1.255000000000000000e+03 8.093764596273331335e+01
1.256000000000000000e+03 3.771512863071039590e+01
1.257000000000000000e+03 4.619867219916896772e+01
1.258000000000000000e+03 7.108931950207511363e+01
1.259000000000000000e+03 8.218808713693084655e+01
1.260000000000000000e+03 9.393718257261375015e+01
1.261000000000000000e+03 1.037745643153528476e+02
1.262000000000000000e+03 1.008279170124453685e+02
1.263000000000000000e+03 6.842719502074805860e+01
1.264000000000000000e+03 6.687063278008281486e+01
1.265000000000000000e+03 8.372047095435691233e+01
1.266000000000000000e+03 6.383955186721945552e+01
1.267000000000000000e+03 1.280431120331739692e+01
1.268000000000000000e+03 2.785422821576953467e+01
1.269000000000000000e+03 6.000984647303000941e+01
1.270000000000000000e+03 8.467727800829644025e+01
1.271000000000000000e+03 7.382048132780155925e+01
1.272000000000000000e+03 5.708719875776563413e+01
1.273000000000000000e+03 7.154193360995157036e+01
1.274000000000000000e+03 9.491815767635317513e+01
1.275000000000000000e+03 6.343890456431498848e+01
1.276000000000000000e+03 1.593723540372650120e+02
1.277000000000000000e+03 1.246479419087155662e+02
1.278000000000000000e+03 1.064434730290455775e+02
1.279000000000000000e+03 1.332825352697094559e+02
1.280000000000000000e+03 7.798312215320815710e+01
1.281000000000000000e+03 6.223594605809127245e+01
1.282000000000000000e+03 3.428281950207344408e+01
1.283000000000000000e+03 4.477902282158001412e+01
1.284000000000000000e+03 8.542862939958355639e+01
1.285000000000000000e+03 5.612195850622318716e+01
1.286000000000000000e+03 3.328244813276034719e+00
1.287000000000000000e+03 1.130596680497354534e+01
1.288000000000000000e+03 6.866641200827992009e+01
1.289000000000000000e+03 8.648070539418770863e+01
1.290000000000000000e+03 2.419113692945868976e+01
1.291000000000000000e+03 3.525900414938271332e+00
1.292000000000000000e+03 6.784599585062349725e+00
1.293000000000000000e+03 5.443751452282497638e+01
1.294000000000000000e+03 5.883438589211766612e+01
1.295000000000000000e+03 2.607087551867277142e+01
1.296000000000000000e+03 2.754755601659840281e+01
1.297000000000000000e+03 2.808702489626610088e+01
1.298000000000000000e+03 2.998846473030480908e+00
1.299000000000000000e+03 0.000000000000000000e+00
1.300000000000000000e+03 0.000000000000000000e+00
1.301000000000000000e+03 0.000000000000000000e+00
1.302000000000000000e+03 0.000000000000000000e+00
1.303000000000000000e+03 0.000000000000000000e+00
1.304000000000000000e+03 0.000000000000000000e+00
1.305000000000000000e+03 0.000000000000000000e+00
1.306000000000000000e+03 0.000000000000000000e+00
1.307000000000000000e+03 0.000000000000000000e+00
1.308000000000000000e+03 0.000000000000000000e+00
1.309000000000000000e+03 0.000000000000000000e+00
1.310000000000000000e+03 0.000000000000000000e+00
1.311000000000000000e+03 0.000000000000000000e+00
1.312000000000000000e+03 0.000000000000000000e+00
1.313000000000000000e+03 0.000000000000000000e+00
1.314000000000000000e+03 0.000000000000000000e+00
1.315000000000000000e+03 0.000000000000000000e+00
1.316000000000000000e+03 0.000000000000000000e+00
1.317000000000000000e+03 0.000000000000000000e+00
1.318000000000000000e+03 0.000000000000000000e+00
1.319000000000000000e+03 0.000000000000000000e+00
1.320000000000000000e+03 0.000000000000000000e+00
1.321000000000000000e+03 0.000000000000000000e+00
1.322000000000000000e+03 0.000000000000000000e+00
1.323000000000000000e+03 0.000000000000000000e+00
1.324000000000000000e+03 0.000000000000000000e+00
1.325000000000000000e+03 0.000000000000000000e+00
1.326000000000000000e+03 0.000000000000000000e+00
1.327000000000000000e+03 0.000000000000000000e+00
1.328000000000000000e+03 0.000000000000000000e+00
1.329000000000000000e+03 0.000000000000000000e+00
1.330000000000000000e+03 0.000000000000000000e+00
1.331000000000000000e+03 0.000000000000000000e+00
1.332000000000000000e+03 0.000000000000000000e+00
1.333000000000000000e+03 0.000000000000000000e+00
1.334000000000000000e+03 0.000000000000000000e+00
1.335000000000000000e+03 0.000000000000000000e+00
1.336000000000000000e+03 0.000000000000000000e+00
1.337000000000000000e+03 0.000000000000000000e+00
1.338000000000000000e+03 0.000000000000000000e+00
1.339000000000000000e+03 0.000000000000000000e+00
1.340000000000000000e+03 0.000000000000000000e+00
1.341000000000000000e+03 0.000000000000000000e+00
1.342000000000000000e+03 0.000000000000000000e+00
1.343000000000000000e+03 0.000000000000000000e+00
1.344000000000000000e+03 0.000000000000000000e+00
1.345000000000000000e+03 0.000000000000000000e+00
1.346000000000000000e+03 0.000000000000000000e+00
1.347000000000000000e+03 0.000000000000000000e+00
1.348000000000000000e+03 0.000000000000000000e+00
1.349000000000000000e+03 0.000000000000000000e+00
1.350000000000000000e+03 0.000000000000000000e+00
1.351000000000000000e+03 0.000000000000000000e+00
1.352000000000000000e+03 0.000000000000000000e+00
1.353000000000000000e+03 0.000000000000000000e+00
1.354000000000000000e+03 0.000000000000000000e+00
1.355000000000000000e+03 0.000000000000000000e+00
1.356000000000000000e+03 0.000000000000000000e+00
1.357000000000000000e+03 0.000000000000000000e+00
1.358000000000000000e+03 0.000000000000000000e+00
1.359000000000000000e+03 0.000000000000000000e+00
1.360000000000000000e+03 0.000000000000000000e+00
1.361000000000000000e+03 0.000000000000000000e+00
1.362000000000000000e+03 0.000000000000000000e+00
1.363000000000000000e+03 0.000000000000000000e+00
1.364000000000000000e+03 0.000000000000000000e+00
1.365000000000000000e+03 0.000000000000000000e+00
1.366000000000000000e+03 0.000000000000000000e+00
1.367000000000000000e+03 0.000000000000000000e+00
1.368000000000000000e+03 0.000000000000000000e+00
1.369000000000000000e+03 0.000000000000000000e+00
1.370000000000000000e+03 0.000000000000000000e+00
1.371000000000000000e+03 0.000000000000000000e+00
1.372000000000000000e+03 0.000000000000000000e+00
1.373000000000000000e+03 0.000000000000000000e+00
1.374000000000000000e+03 0.000000000000000000e+00
1.375000000000000000e+03 0.000000000000000000e+00
1.376000000000000000e+03 0.000000000000000000e+00
1.377000000000000000e+03 0.000000000000000000e+00
1.378000000000000000e+03 0.000000000000000000e+00
1.379000000000000000e+03 0.000000000000000000e+00
1.380000000000000000e+03 0.000000000000000000e+00
1.381000000000000000e+03 0.000000000000000000e+00
1.382000000000000000e+03 0.000000000000000000e+00
1.383000000000000000e+03 0.000000000000000000e+00
1.384000000000000000e+03 0.000000000000000000e+00
1.385000000000000000e+03 0.000000000000000000e+00
1.386000000000000000e+03 0.000000000000000000e+00
1.387000000000000000e+03 0.000000000000000000e+00
1.388000000000000000e+03 0.000000000000000000e+00
1.389000000000000000e+03 0.000000000000000000e+00
1.390000000000000000e+03 0.000000000000000000e+00
1.391000000000000000e+03 0.000000000000000000e+00
1.392000000000000000e+03 0.000000000000000000e+00
1.393000000000000000e+03 0.000000000000000000e+00
1.394000000000000000e+03 0.000000000000000000e+00
1.395000000000000000e+03 0.000000000000000000e+00
1.396000000000000000e+03 0.000000000000000000e+00
1.397000000000000000e+03 0.000000000000000000e+00
1.398000000000000000e+03 0.000000000000000000e+00
1.399000000000000000e+03 0.000000000000000000e+00
1.400000000000000000e+03 0.000000000000000000e+00
1.401000000000000000e+03 0.000000000000000000e+00
1.402000000000000000e+03 0.000000000000000000e+00
1.403000000000000000e+03 0.000000000000000000e+00
1.404000000000000000e+03 0.000000000000000000e+00
1.405000000000000000e+03 0.000000000000000000e+00
1.406000000000000000e+03 0.000000000000000000e+00
1.407000000000000000e+03 0.000000000000000000e+00
1.408000000000000000e+03 0.000000000000000000e+00
1.409000000000000000e+03 0.000000000000000000e+00
1.410000000000000000e+03 0.000000000000000000e+00
1.411000000000000000e+03 0.000000000000000000e+00
1.412000000000000000e+03 0.000000000000000000e+00
1.413000000000000000e+03 0.000000000000000000e+00
1.414000000000000000e+03 0.000000000000000000e+00
1.415000000000000000e+03 0.000000000000000000e+00
1.416000000000000000e+03 0.000000000000000000e+00
1.417000000000000000e+03 0.000000000000000000e+00
1.418000000000000000e+03 0.000000000000000000e+00
1.419000000000000000e+03 0.000000000000000000e+00
1.420000000000000000e+03 0.000000000000000000e+00
1.421000000000000000e+03 0.000000000000000000e+00
1.422000000000000000e+03 0.000000000000000000e+00
1.423000000000000000e+03 0.000000000000000000e+00
1.424000000000000000e+03 0.000000000000000000e+00
1.425000000000000000e+03 0.000000000000000000e+00
1.426000000000000000e+03 0.000000000000000000e+00
1.427000000000000000e+03 0.000000000000000000e+00
1.428000000000000000e+03 0.000000000000000000e+00
1.429000000000000000e+03 0.000000000000000000e+00
1.430000000000000000e+03 0.000000000000000000e+00
1.431000000000000000e+03 0.000000000000000000e+00
1.432000000000000000e+03 0.000000000000000000e+00
1.433000000000000000e+03 0.000000000000000000e+00
1.434000000000000000e+03 0.000000000000000000e+00
1.435000000000000000e+03 0.000000000000000000e+00
1.436000000000000000e+03 0.000000000000000000e+00
1.437000000000000000e+03 0.000000000000000000e+00
1.438000000000000000e+03 0.000000000000000000e+00
1.439000000000000000e+03 0.000000000000000000e+00
1.440000000000000000e+03 0.000000000000000000e+00
1.441000000000000000e+03 0.000000000000000000e+00
1.442000000000000000e+03 0.000000000000000000e+00
1.443000000000000000e+03 0.000000000000000000e+00
1.444000000000000000e+03 0.000000000000000000e+00
1.445000000000000000e+03 0.000000000000000000e+00
1.446000000000000000e+03 0.000000000000000000e+00
1.447000000000000000e+03 0.000000000000000000e+00
1.448000000000000000e+03 0.000000000000000000e+00
1.449000000000000000e+03 0.000000000000000000e+00
1.450000000000000000e+03 0.000000000000000000e+00
1.451000000000000000e+03 0.000000000000000000e+00
1.452000000000000000e+03 0.000000000000000000e+00
1.453000000000000000e+03 0.000000000000000000e+00
1.454000000000000000e+03 0.000000000000000000e+00
1.455000000000000000e+03 0.000000000000000000e+00
1.456000000000000000e+03 0.000000000000000000e+00
1.457000000000000000e+03 0.000000000000000000e+00
1.458000000000000000e+03 0.000000000000000000e+00
1.459000000000000000e+03 0.000000000000000000e+00
1.460000000000000000e+03 0.000000000000000000e+00
1.461000000000000000e+03 0.000000000000000000e+00
1.462000000000000000e+03 0.000000000000000000e+00
1.463000000000000000e+03 0.000000000000000000e+00
1.464000000000000000e+03 0.000000000000000000e+00
1.465000000000000000e+03 0.000000000000000000e+00
1.466000000000000000e+03 0.000000000000000000e+00
1.467000000000000000e+03 0.000000000000000000e+00
1.468000000000000000e+03 0.000000000000000000e+00
1.469000000000000000e+03 0.000000000000000000e+00
1.470000000000000000e+03 0.000000000000000000e+00
1.471000000000000000e+03 0.000000000000000000e+00
1.472000000000000000e+03 0.000000000000000000e+00
1.473000000000000000e+03 0.000000000000000000e+00
1.474000000000000000e+03 0.000000000000000000e+00
1.475000000000000000e+03 0.000000000000000000e+00
1.476000000000000000e+03 0.000000000000000000e+00
1.477000000000000000e+03 0.000000000000000000e+00
1.478000000000000000e+03 0.000000000000000000e+00
1.479000000000000000e+03 0.000000000000000000e+00
1.480000000000000000e+03 0.000000000000000000e+00
1.481000000000000000e+03 0.000000000000000000e+00
1.482000000000000000e+03 0.000000000000000000e+00
1.483000000000000000e+03 0.000000000000000000e+00
1.484000000000000000e+03 0.000000000000000000e+00
1.485000000000000000e+03 0.000000000000000000e+00
1.486000000000000000e+03 0.000000000000000000e+00
1.487000000000000000e+03 0.000000000000000000e+00
1.488000000000000000e+03 0.000000000000000000e+00
1.489000000000000000e+03 0.000000000000000000e+00
1.490000000000000000e+03 0.000000000000000000e+00
1.491000000000000000e+03 0.000000000000000000e+00
1.492000000000000000e+03 0.000000000000000000e+00
1.493000000000000000e+03 0.000000000000000000e+00
1.494000000000000000e+03 0.000000000000000000e+00
1.495000000000000000e+03 0.000000000000000000e+00
1.496000000000000000e+03 0.000000000000000000e+00
1.497000000000000000e+03 0.000000000000000000e+00
1.498000000000000000e+03 0.000000000000000000e+00
1.499000000000000000e+03 0.000000000000000000e+00
1.500000000000000000e+03 0.000000000000000000e+00
