1.010000000000000000e+02 0.000000000000000000e+00
1.020000000000000000e+02 0.000000000000000000e+00
1.030000000000000000e+02 0.000000000000000000e+00
1.040000000000000000e+02 0.000000000000000000e+00
1.050000000000000000e+02 0.000000000000000000e+00
1.060000000000000000e+02 0.000000000000000000e+00
1.070000000000000000e+02 0.000000000000000000e+00
1.080000000000000000e+02 0.000000000000000000e+00
1.090000000000000000e+02 0.000000000000000000e+00
1.100000000000000000e+02 0.000000000000000000e+00
1.110000000000000000e+02 0.000000000000000000e+00
1.120000000000000000e+02 0.000000000000000000e+00
1.130000000000000000e+02 0.000000000000000000e+00
1.140000000000000000e+02 0.000000000000000000e+00
1.150000000000000000e+02 0.000000000000000000e+00
1.160000000000000000e+02 0.000000000000000000e+00
1.170000000000000000e+02 0.000000000000000000e+00
1.180000000000000000e+02 0.000000000000000000e+00
1.190000000000000000e+02 0.000000000000000000e+00
1.200000000000000000e+02 0.000000000000000000e+00
1.210000000000000000e+02 0.000000000000000000e+00
1.220000000000000000e+02 0.000000000000000000e+00
1.230000000000000000e+02 0.000000000000000000e+00
1.240000000000000000e+02 0.000000000000000000e+00
1.250000000000000000e+02 0.000000000000000000e+00
1.260000000000000000e+02 0.000000000000000000e+00
1.270000000000000000e+02 0.000000000000000000e+00
1.280000000000000000e+02 0.000000000000000000e+00
1.290000000000000000e+02 0.000000000000000000e+00
1.300000000000000000e+02 0.000000000000000000e+00
1.310000000000000000e+02 0.000000000000000000e+00
1.320000000000000000e+02 0.000000000000000000e+00
1.330000000000000000e+02 0.000000000000000000e+00
1.340000000000000000e+02 0.000000000000000000e+00
1.350000000000000000e+02 0.000000000000000000e+00
1.360000000000000000e+02 0.000000000000000000e+00
1.370000000000000000e+02 0.000000000000000000e+00
1.380000000000000000e+02 0.000000000000000000e+00
1.390000000000000000e+02 0.000000000000000000e+00
1.400000000000000000e+02 0.000000000000000000e+00
1.410000000000000000e+02 0.000000000000000000e+00
1.420000000000000000e+02 0.000000000000000000e+00
1.430000000000000000e+02 0.000000000000000000e+00
1.440000000000000000e+02 0.000000000000000000e+00
1.450000000000000000e+02 0.000000000000000000e+00
1.460000000000000000e+02 0.000000000000000000e+00
1.470000000000000000e+02 0.000000000000000000e+00
1.480000000000000000e+02 0.000000000000000000e+00
1.490000000000000000e+02 0.000000000000000000e+00
1.500000000000000000e+02 0.000000000000000000e+00
1.510000000000000000e+02 0.000000000000000000e+00
1.520000000000000000e+02 0.000000000000000000e+00
1.530000000000000000e+02 0.000000000000000000e+00
1.540000000000000000e+02 0.000000000000000000e+00
1.550000000000000000e+02 0.000000000000000000e+00
1.560000000000000000e+02 0.000000000000000000e+00
1.570000000000000000e+02 0.000000000000000000e+00
1.580000000000000000e+02 0.000000000000000000e+00
1.590000000000000000e+02 0.000000000000000000e+00
1.600000000000000000e+02 0.000000000000000000e+00
1.610000000000000000e+02 0.000000000000000000e+00
1.620000000000000000e+02 0.000000000000000000e+00
1.630000000000000000e+02 0.000000000000000000e+00
1.640000000000000000e+02 1.180843341476543566e-02
1.650000000000000000e+02 8.650871858183093246e-03
1.660000000000000000e+02 1.988617247459072424e-01
1.670000000000000000e+02 2.715893556615504578e-01
1.680000000000000000e+02 1.453010927193528201e-01
1.690000000000000000e+02 2.983693584318592440e-01
1.700000000000000000e+02 6.584502596433059463e-01
1.710000000000000000e+02 9.141415349512558297e-01
1.720000000000000000e+02 7.518422445550713151e-01
1.730000000000000000e+02 2.805266701929040596e-01
1.740000000000000000e+02 6.741417890479134423e-01
1.750000000000000000e+02 4.564379458618479379e-01
1.760000000000000000e+02 1.142646033586391940e-02
1.770000000000000000e+02 1.986420865243692102e-01
1.780000000000000000e+02 9.547508954573687978e-01
1.790000000000000000e+02 8.516082557560616939e-01
1.800000000000000000e+02 2.495290070524763260e-01
1.810000000000000000e+02 8.332304148516891940e-02
1.820000000000000000e+02 6.503932165525772024e-01
1.830000000000000000e+02 4.026187772246382357e-01
1.840000000000000000e+02 6.228355722879115319e-01
1.850000000000000000e+02 8.404919222153083291e-01
1.860000000000000000e+02 8.607570769840379443e-02
1.870000000000000000e+02 2.280714978452966224e-02
1.880000000000000000e+02 1.169097622899811784e-01
1.890000000000000000e+02 2.277588115453234655e-02
1.900000000000000000e+02 6.563355615118066089e-02
1.910000000000000000e+02 9.508761543248253623e-02
1.920000000000000000e+02 1.113944010777833810e-01
1.930000000000000000e+02 4.566131173786834307e-01
1.940000000000000000e+02 9.176310377515038974e-01
1.950000000000000000e+02 5.636481178178828211e-01
1.960000000000000000e+02 5.924636854002498509e-01
1.970000000000000000e+02 1.247904106409462921e+00
1.980000000000000000e+02 1.799135368388301126e+00
1.990000000000000000e+02 1.845413859394438916e+00
2.000000000000000000e+02 3.092579260112017892e+00
2.010000000000000000e+02 3.209842601742374679e+00
2.020000000000000000e+02 3.266337624766645575e+00
2.030000000000000000e+02 3.882155337689273455e+00
2.040000000000000000e+02 4.241796400539304734e+00
2.050000000000000000e+02 4.368712057042109187e+00
2.060000000000000000e+02 4.996607041692597839e+00
2.070000000000000000e+02 5.664603234598630799e+00
2.080000000000000000e+02 5.775730622692383243e+00
2.090000000000000000e+02 6.654621441194783493e+00
2.100000000000000000e+02 6.777486238332294022e+00
2.110000000000000000e+02 7.805538148102047380e+00
2.120000000000000000e+02 1.015246825430406830e+01
2.130000000000000000e+02 1.133103074450433745e+01
2.140000000000000000e+02 1.300005095623315476e+01
2.150000000000000000e+02 1.431923409458618579e+01
2.160000000000000000e+02 1.491779184570717298e+01
2.170000000000000000e+02 1.464074076954989145e+01
2.180000000000000000e+02 1.222919380418998081e+01
2.190000000000000000e+02 1.034256776602364170e+01
2.200000000000000000e+02 9.105438342252650585e+00
2.210000000000000000e+02 7.966078322754627905e+00
2.220000000000000000e+02 6.813168067413386986e+00
2.230000000000000000e+02 5.938542127566893036e+00
2.240000000000000000e+02 6.364872683883008975e+00
2.250000000000000000e+02 7.144296269653596099e+00
2.260000000000000000e+02 6.477968894835089309e+00
2.270000000000000000e+02 6.159582897739060314e+00
2.280000000000000000e+02 6.955378483824139479e+00
2.290000000000000000e+02 8.382495079651512526e+00
2.300000000000000000e+02 9.969912056627247665e+00
2.310000000000000000e+02 1.176389513894650918e+01
2.320000000000000000e+02 1.343268327317984046e+01
2.330000000000000000e+02 1.573518543870564912e+01
2.340000000000000000e+02 1.831140501866446257e+01
2.350000000000000000e+02 2.024652000000001806e+01
2.360000000000000000e+02 2.289364810205352541e+01
2.370000000000000000e+02 2.461900589381998827e+01
2.380000000000000000e+02 2.642010940261354079e+01
2.390000000000000000e+02 2.901421000829706287e+01
2.400000000000000000e+02 3.106653993154948168e+01
2.410000000000000000e+02 3.390468424393279179e+01
2.420000000000000000e+02 3.738872377100184252e+01
2.430000000000000000e+02 4.158203306782831277e+01
2.440000000000000000e+02 4.668312817465260167e+01
2.450000000000000000e+02 5.212240043559428671e+01
2.460000000000000000e+02 5.932676304293708824e+01
2.470000000000000000e+02 6.836065332296190888e+01
2.480000000000000000e+02 7.807053108691152943e+01
2.490000000000000000e+02 8.660495861646961657e+01
2.500000000000000000e+02 8.951978969715825940e+01
2.510000000000000000e+02 8.809267324206598460e+01
2.520000000000000000e+02 8.082049374611067094e+01
2.530000000000000000e+02 6.536845714582028677e+01
2.540000000000000000e+02 4.932173231439238492e+01
2.550000000000000000e+02 3.654555214270908436e+01
2.560000000000000000e+02 2.687166010578712161e+01
2.570000000000000000e+02 1.983747252022399721e+01
2.580000000000000000e+02 1.538032746733043155e+01
2.590000000000000000e+02 1.175460657125079855e+01
2.600000000000000000e+02 8.897044358224402316e+00
2.610000000000000000e+02 7.021664021779702836e+00
2.620000000000000000e+02 5.967610651524577037e+00
2.630000000000000000e+02 5.042849908525181668e+00
2.640000000000000000e+02 4.016941918689051150e+00
2.650000000000000000e+02 3.259785336652140320e+00
2.660000000000000000e+02 2.668156344119495760e+00
2.670000000000000000e+02 1.738667722671634275e+00
2.680000000000000000e+02 1.514424887598502467e+00
2.690000000000000000e+02 1.036493465048756057e+00
2.700000000000000000e+02 7.360941425015472550e-01
2.710000000000000000e+02 9.517214653670700297e-01
2.720000000000000000e+02 6.075343439120557409e-01
2.730000000000000000e+02 1.327390342306598303e-01
2.740000000000000000e+02 1.602128166735791170e-01
2.750000000000000000e+02 1.404021605476042378e-01
2.760000000000000000e+02 8.338864426467419710e-02
2.770000000000000000e+02 2.067389433844883107e-01
2.780000000000000000e+02 9.410846146857317074e-02
2.790000000000000000e+02 4.713392625762322097e-02
2.800000000000000000e+02 4.357160772059723297e-02
2.810000000000000000e+02 8.625115724616970458e-02
2.820000000000000000e+02 1.267703098485775670e-01
2.830000000000000000e+02 1.313864043302128970e-01
2.840000000000000000e+02 3.351244362165448631e-01
2.850000000000000000e+02 7.277050321510752928e-02
2.860000000000000000e+02 1.122579738643401104e-01
2.870000000000000000e+02 8.432861682368605893e-02
2.880000000000000000e+02 1.228085322277547020e-01
2.890000000000000000e+02 6.533582800248860512e-01
2.900000000000000000e+02 1.253411648205759343e+00
2.910000000000000000e+02 1.610716613773070627e+00
2.920000000000000000e+02 2.017570938394524394e+00
2.930000000000000000e+02 2.246248565650279527e+00
2.940000000000000000e+02 2.229025028618828674e+00
2.950000000000000000e+02 2.509457082555492047e+00
2.960000000000000000e+02 3.199828144783242401e+00
2.970000000000000000e+02 3.415644480298636321e+00
2.980000000000000000e+02 4.124373510889862260e+00
2.990000000000000000e+02 3.833263384774951543e+00
3.000000000000000000e+02 4.009138769805060676e+00
3.010000000000000000e+02 4.213576255756043665e+00
3.020000000000000000e+02 4.539490172370881815e+00
3.030000000000000000e+02 4.774013088759851975e+00
3.040000000000000000e+02 4.767361473138353567e+00
3.050000000000000000e+02 4.322400074880744292e+00
3.060000000000000000e+02 4.393575972418082287e+00
3.070000000000000000e+02 4.509604864965778503e+00
3.080000000000000000e+02 4.145826633271119555e+00
3.090000000000000000e+02 3.515965366936320446e+00
3.100000000000000000e+02 3.746041278780336103e+00
3.110000000000000000e+02 2.827091085252038560e+00
3.120000000000000000e+02 1.612473428749218396e+00
3.130000000000000000e+02 1.356283889234597195e+00
3.140000000000000000e+02 1.026689477909147774e+00
3.150000000000000000e+02 6.668970958307347541e-01
3.160000000000000000e+02 7.237828263845725862e-01
3.170000000000000000e+02 6.048802698610192818e-01
3.180000000000000000e+02 2.250503507255835478e-01
3.190000000000000000e+02 1.235893789670132331e-01
3.200000000000000000e+02 3.933031045426362837e-01
3.210000000000000000e+02 2.171118095830753825e-01
3.220000000000000000e+02 1.762117878033645779e-01
3.230000000000000000e+02 4.423283160514292489e-01
3.240000000000000000e+02 8.036971654780575292e-02
3.250000000000000000e+02 2.043546067206007122e-01
3.260000000000000000e+02 1.744403073413479666e-01
3.270000000000000000e+02 1.778903509645307079e-01
3.280000000000000000e+02 3.872672124040613673e-01
3.290000000000000000e+02 2.578995642886764417e-01
3.300000000000000000e+02 7.048666365899252106e-01
3.310000000000000000e+02 1.239978495125492630e+00
3.320000000000000000e+02 1.029336693073410025e+00
3.330000000000000000e+02 8.925537598008704832e-01
3.340000000000000000e+02 1.222007498444310114e+00
3.350000000000000000e+02 1.711187335407581500e+00
3.360000000000000000e+02 1.953868297863507353e+00
3.370000000000000000e+02 1.714866623522089295e+00
3.380000000000000000e+02 1.748969092097069966e+00
3.390000000000000000e+02 2.220005461107639633e+00
3.400000000000000000e+02 2.481234481020532012e+00
3.410000000000000000e+02 2.320956245592196598e+00
3.420000000000000000e+02 2.221905282306573692e+00
3.430000000000000000e+02 2.605575164281259237e+00
3.440000000000000000e+02 2.923347409251186857e+00
3.450000000000000000e+02 2.865181914333128077e+00
3.460000000000000000e+02 2.800586955403440381e+00
3.470000000000000000e+02 3.320002843808331328e+00
3.480000000000000000e+02 2.513262602364654263e+00
3.490000000000000000e+02 2.300080999377721369e+00
3.500000000000000000e+02 2.311682783492328586e+00
3.510000000000000000e+02 1.965165945447001627e+00
3.520000000000000000e+02 1.851249619788424283e+00
3.530000000000000000e+02 1.314012516175855128e+00
3.540000000000000000e+02 9.516519894212794872e-01
3.550000000000000000e+02 8.898768647583487068e-01
3.560000000000000000e+02 1.033353380340103156e+00
3.570000000000000000e+02 1.494488517734914090e+00
3.580000000000000000e+02 1.437871941091055428e+00
3.590000000000000000e+02 1.509672913710844444e+00
3.600000000000000000e+02 1.814282774735525461e+00
3.610000000000000000e+02 1.978657424720048796e+00
3.620000000000000000e+02 1.477383469819538497e+00
3.630000000000000000e+02 2.058570647168626699e+00
3.640000000000000000e+02 2.634841239734547091e+00
3.650000000000000000e+02 2.836764843186061036e+00
3.660000000000000000e+02 3.124842908525199192e+00
3.670000000000000000e+02 4.216672542098717003e+00
3.680000000000000000e+02 5.060686262601126195e+00
3.690000000000000000e+02 5.411209290188756960e+00
3.700000000000000000e+02 5.732153941518052243e+00
3.710000000000000000e+02 6.629251762912276469e+00
3.720000000000000000e+02 7.721792306575412823e+00
3.730000000000000000e+02 8.180756686851925252e+00
3.740000000000000000e+02 8.304100915785110004e+00
3.750000000000000000e+02 8.715497654635996128e+00
3.760000000000000000e+02 9.814481762912251384e+00
3.770000000000000000e+02 1.012018927400954027e+01
3.780000000000000000e+02 1.009776073428749399e+01
3.790000000000000000e+02 1.023061116573324725e+01
3.800000000000000000e+02 1.049648087741132407e+01
3.810000000000000000e+02 1.040051178593653169e+01
3.820000000000000000e+02 1.005481255258245099e+01
3.830000000000000000e+02 9.865806000829703493e+00
3.840000000000000000e+02 9.858002671437461117e+00
3.850000000000000000e+02 9.878217950840076256e+00
3.860000000000000000e+02 9.809019363410079961e+00
3.870000000000000000e+02 9.256153407384360321e+00
3.880000000000000000e+02 9.067135603401784039e+00
3.890000000000000000e+02 8.845708128189164299e+00
3.900000000000000000e+02 8.561869843011200132e+00
3.910000000000000000e+02 8.854780966811864218e+00
3.920000000000000000e+02 8.797176094378755806e+00
3.930000000000000000e+02 8.802003683119037802e+00
3.940000000000000000e+02 8.354058914748000220e+00
3.950000000000000000e+02 7.671540404895249132e+00
3.960000000000000000e+02 7.943911980506014991e+00
3.970000000000000000e+02 7.581389148516910481e+00
3.980000000000000000e+02 7.270707696328565284e+00
3.990000000000000000e+02 6.923297152633762330e+00
4.000000000000000000e+02 6.355184650902303112e+00
4.010000000000000000e+02 5.714332527691355246e+00
4.020000000000000000e+02 5.620378040240607831e+00
4.030000000000000000e+02 4.498832920348466935e+00
4.040000000000000000e+02 3.780712688031529378e+00
4.050000000000000000e+02 4.240491796930092150e+00
4.060000000000000000e+02 3.800600771209286410e+00
4.070000000000000000e+02 3.534511403858119127e+00
4.080000000000000000e+02 3.448902034847542097e+00
4.090000000000000000e+02 3.254988266749628600e+00
4.100000000000000000e+02 3.066142813939018108e+00
4.110000000000000000e+02 3.376551594275039925e+00
4.120000000000000000e+02 3.655867289981326707e+00
4.130000000000000000e+02 3.490192041485162822e+00
4.140000000000000000e+02 3.389769921385603624e+00
4.150000000000000000e+02 3.553054855839038684e+00
4.160000000000000000e+02 3.384115138531740286e+00
4.170000000000000000e+02 2.785817822028625379e+00
4.180000000000000000e+02 2.619059457996265827e+00
4.190000000000000000e+02 2.572408730194941207e+00
4.200000000000000000e+02 2.340892905206387820e+00
4.210000000000000000e+02 2.145578098942127809e+00
4.220000000000000000e+02 1.694993313148066560e+00
4.230000000000000000e+02 1.320512393901675186e+00
4.240000000000000000e+02 9.719374996888572316e-01
4.250000000000000000e+02 5.730342104935788328e-01
4.260000000000000000e+02 1.982201225886664198e-01
4.270000000000000000e+02 7.909877142615942547e-02
4.280000000000000000e+02 2.824570029033501850e-01
4.290000000000000000e+02 4.740303619581068273e-01
4.300000000000000000e+02 2.764811151213452112e-01
4.310000000000000000e+02 2.972911194772878685e-01
4.320000000000000000e+02 1.252801076540153158e-01
4.330000000000000000e+02 1.326509135034211195e-01
4.340000000000000000e+02 1.029735096453015808e-01
4.350000000000000000e+02 3.900129818917233426e-02
4.360000000000000000e+02 1.901412569321818749e-02
4.370000000000000000e+02 1.487456569118454919e-01
4.380000000000000000e+02 7.787913285563130561e-02
4.390000000000000000e+02 9.388368657125040206e-02
4.400000000000000000e+02 1.432034430616047349e-01
4.410000000000000000e+02 2.574930041713221346e-02
4.420000000000000000e+02 2.101090600871103470e-02
4.430000000000000000e+02 1.709861913690056412e-01
4.440000000000000000e+02 8.551767931674056356e-02
4.450000000000000000e+02 1.507455512235588435e-01
4.460000000000000000e+02 1.239650804042764787e-01
4.470000000000000000e+02 3.028369336237273224e-01
4.480000000000000000e+02 3.349322855661537868e-01
4.490000000000000000e+02 1.491972470441846610e-01
4.500000000000000000e+02 3.593056668740860632e-02
4.510000000000000000e+02 3.161627021567903206e-02
4.520000000000000000e+02 3.338880613980494960e-01
4.530000000000000000e+02 5.915718879464843677e-02
4.540000000000000000e+02 1.556591835338046459e-01
4.550000000000000000e+02 4.153874068035280642e-03
4.560000000000000000e+02 2.138510517730768667e-01
4.570000000000000000e+02 3.284478085459455188e-01
4.580000000000000000e+02 1.583601117996227825e-01
4.590000000000000000e+02 9.767723685915893905e-02
4.600000000000000000e+02 2.136928765816160647e-01
4.610000000000000000e+02 1.789284548848852074e-01
4.620000000000000000e+02 1.109994915992573994e-01
4.630000000000000000e+02 4.770916260111948692e-01
4.640000000000000000e+02 3.115893387264015990e-01
4.650000000000000000e+02 1.978539827836576226e-01
4.660000000000000000e+02 6.192965724953238826e-01
4.670000000000000000e+02 1.355509304915983204e+00
4.680000000000000000e+02 9.663350725990583756e-01
4.690000000000000000e+02 7.120459568554241558e-01
4.700000000000000000e+02 8.789100389960553539e-01
4.710000000000000000e+02 9.599213977602725212e-01
4.720000000000000000e+02 5.903017685127578407e-01
4.730000000000000000e+02 1.164816041485168263e+00
4.740000000000000000e+02 1.497686301534633113e+00
4.750000000000000000e+02 1.187187667496361732e+00
4.760000000000000000e+02 9.303217622899827566e-01
4.770000000000000000e+02 1.191847160306928943e+00
4.780000000000000000e+02 1.254570999377725204e+00
4.790000000000000000e+02 1.838148141671862801e+00
4.800000000000000000e+02 1.769966821236008903e+00
4.810000000000000000e+02 1.466392316739270285e+00
4.820000000000000000e+02 1.672352199336246681e+00
4.830000000000000000e+02 2.433803263015972718e+00
4.840000000000000000e+02 2.166795732628092885e+00
4.850000000000000000e+02 1.735400034225270227e+00
4.860000000000000000e+02 1.856493193528310881e+00
4.870000000000000000e+02 2.067260584318613148e+00
4.880000000000000000e+02 1.531049513586392852e+00
4.890000000000000000e+02 2.138888455922010934e+00
4.900000000000000000e+02 2.445293864965774500e+00
4.910000000000000000e+02 2.887505674963696034e+00
4.920000000000000000e+02 3.312282752333542302e+00
4.930000000000000000e+02 3.169981037336650154e+00
4.940000000000000000e+02 2.966106120721841766e+00
4.950000000000000000e+02 3.434204591163672937e+00
4.960000000000000000e+02 3.913868206803571503e+00
4.970000000000000000e+02 3.812172247615093656e+00
4.980000000000000000e+02 4.005905669363130528e+00
4.990000000000000000e+02 6.514806759800896074e+00
5.000000000000000000e+02 6.610594043343007264e+00
5.010000000000000000e+02 6.444140151006012118e+00
5.020000000000000000e+02 7.174654172785695394e+00
5.030000000000000000e+02 8.354071571961830145e+00
5.040000000000000000e+02 9.129884804604845527e+00
5.050000000000000000e+02 1.049368509852725673e+01
5.060000000000000000e+02 1.170309903152218922e+01
5.070000000000000000e+02 1.327488183779298758e+01
5.080000000000000000e+02 1.522466361543247260e+01
5.090000000000000000e+02 1.726333659892163652e+01
5.100000000000000000e+02 1.955304913295998048e+01
5.110000000000000000e+02 2.131204726405310623e+01
5.120000000000000000e+02 2.384972967434149282e+01
5.130000000000000000e+02 2.678269109520839919e+01
5.140000000000000000e+02 2.949345835718730768e+01
5.150000000000000000e+02 3.229685431860609413e+01
5.160000000000000000e+02 3.536055037958929148e+01
5.170000000000000000e+02 3.819982447832406081e+01
5.180000000000000000e+02 4.185648100808970185e+01
5.190000000000000000e+02 4.590275692802330099e+01
5.200000000000000000e+02 4.906408414229426285e+01
5.210000000000000000e+02 5.220341046463402535e+01
5.220000000000000000e+02 5.550819634723100648e+01
5.230000000000000000e+02 5.669645026757933692e+01
5.240000000000000000e+02 5.730684187305529065e+01
5.250000000000000000e+02 5.855446600580670946e+01
5.260000000000000000e+02 5.764969968263851285e+01
5.270000000000000000e+02 5.504680861854395602e+01
5.280000000000000000e+02 5.188087261302370479e+01
5.290000000000000000e+02 4.823819912466295534e+01
5.300000000000000000e+02 4.429747573739891209e+01
5.310000000000000000e+02 4.039916518457068406e+01
5.320000000000000000e+02 3.616538749222146976e+01
5.330000000000000000e+02 3.233762622484956495e+01
5.340000000000000000e+02 2.876394882413923781e+01
5.350000000000000000e+02 2.588080511719551424e+01
5.360000000000000000e+02 2.375303818917229037e+01
5.370000000000000000e+02 2.115007241443677088e+01
5.380000000000000000e+02 2.031233686579543729e+01
5.390000000000000000e+02 1.893042138767884808e+01
5.400000000000000000e+02 1.762026077577268524e+01
5.410000000000000000e+02 1.657654838830124078e+01
5.420000000000000000e+02 1.523934160340177435e+01
5.430000000000000000e+02 1.537817326903131843e+01
5.440000000000000000e+02 1.491538101638665381e+01
5.450000000000000000e+02 1.379355822650904173e+01
5.460000000000000000e+02 1.308351852520223879e+01
5.470000000000000000e+02 1.279875648205765870e+01
5.480000000000000000e+02 1.145948751711262226e+01
5.490000000000000000e+02 1.079898827421695096e+01
5.500000000000000000e+02 1.002775063161167957e+01
5.510000000000000000e+02 9.496475933430108540e+00
5.520000000000000000e+02 9.190568991288099454e+00
5.530000000000000000e+02 8.588051008089589544e+00
5.540000000000000000e+02 7.633668990045604730e+00
5.550000000000000000e+02 6.737459560672037107e+00
5.560000000000000000e+02 5.914234851275654847e+00
5.570000000000000000e+02 5.320713862919941306e+00
5.580000000000000000e+02 4.973923776602370950e+00
5.590000000000000000e+02 4.662759476042311668e+00
5.600000000000000000e+02 4.750123215263377219e+00
5.610000000000000000e+02 3.982363552375022930e+00
5.620000000000000000e+02 3.579610282306575630e+00
5.630000000000000000e+02 3.471723447532136575e+00
5.640000000000000000e+02 2.834197517112629239e+00
5.650000000000000000e+02 2.643420457996263462e+00
5.660000000000000000e+02 1.940150078614382601e+00
5.670000000000000000e+02 1.639682163866417852e+00
5.680000000000000000e+02 1.362174594897323177e+00
5.690000000000000000e+02 9.531197685127560382e-01
5.700000000000000000e+02 1.088112844430617843e+00
5.710000000000000000e+02 1.241185876374196306e+00
5.720000000000000000e+02 3.264086133582088656e-01
5.730000000000000000e+02 8.665342013752334871e-02
5.740000000000000000e+02 2.493654177556525742e-01
5.750000000000000000e+02 2.417195285210533839e-01
5.760000000000000000e+02 7.640844173407991269e-01
5.770000000000000000e+02 3.421515595188761583e-01
5.780000000000000000e+02 6.980571322215391172e-02
5.790000000000000000e+02 6.082708440572375669e-02
5.800000000000000000e+02 1.407722886768973947e-01
5.810000000000000000e+02 2.813218203692176012e-01
5.820000000000000000e+02 2.644382545115095962e-01
5.830000000000000000e+02 1.665353811007896367e-01
5.840000000000000000e+02 3.740695897116768087e-01
5.850000000000000000e+02 4.658713542833477494e-01
5.860000000000000000e+02 1.396156636250525107e-01
5.870000000000000000e+02 1.945038203319516823e-01
5.880000000000000000e+02 7.050983422526282407e-01
5.890000000000000000e+02 2.317810033188404950e-01
5.900000000000000000e+02 2.711584325859587100e-02
5.910000000000000000e+02 2.651654113254502398e-01
5.920000000000000000e+02 2.789511534951271132e-01
5.930000000000000000e+02 1.266092679937762255e-01
5.940000000000000000e+02 2.176731051649067050e-01
5.950000000000000000e+02 1.285252763024288258e-01
5.960000000000000000e+02 2.446182262546495179e-01
5.970000000000000000e+02 3.843700445965665402e-01
5.980000000000000000e+02 1.299637799097780322e-01
5.990000000000000000e+02 2.770956254665983276e-01
6.000000000000000000e+02 2.672460441817104959e-01
6.010000000000000000e+02 4.192232794027068998e-02
6.020000000000000000e+02 1.370868351306498423e-01
6.030000000000000000e+02 5.957603464012097699e-02
6.040000000000000000e+02 7.656168321094833362e-02
6.050000000000000000e+02 1.950820137336547327e-02
6.060000000000000000e+02 6.823234722858462220e-02
6.070000000000000000e+02 1.454885018570674093e-01
6.080000000000000000e+02 4.314385631611682426e-01
6.090000000000000000e+02 7.130288031300514862e-02
6.100000000000000000e+02 1.169679386019498168e-01
6.110000000000000000e+02 6.267189740987225144e-02
6.120000000000000000e+02 1.941140551752797150e-02
6.130000000000000000e+02 1.254694654635961082e-01
6.140000000000000000e+02 3.630295787181011535e-01
6.150000000000000000e+02 3.318696836755788970e-01
6.160000000000000000e+02 1.703420981124294520e-01
6.170000000000000000e+02 1.067971207633266140e+00
6.180000000000000000e+02 8.044769091475073575e-01
6.190000000000000000e+02 3.648635427208701265e-01
6.200000000000000000e+02 2.996189688861206624e-01
6.210000000000000000e+02 4.290003609209662727e-01
6.220000000000000000e+02 5.636726918291158350e-01
6.230000000000000000e+02 5.391270752955819034e-01
6.240000000000000000e+02 5.365014793611279087e-01
6.250000000000000000e+02 1.108851637909591625e+00
6.260000000000000000e+02 1.672704182949597884e+00
6.270000000000000000e+02 1.608307647790913064e+00
6.280000000000000000e+02 1.597054199917050887e+00
6.290000000000000000e+02 2.003888153080293222e+00
6.300000000000000000e+02 2.352228169466926921e+00
6.310000000000000000e+02 2.768368281891700367e+00
6.320000000000000000e+02 2.996116660236456841e+00
6.330000000000000000e+02 3.028303315702170373e+00
6.340000000000000000e+02 3.819858685749834226e+00
6.350000000000000000e+02 3.801916886538068141e+00
6.360000000000000000e+02 3.652919784691974314e+00
6.370000000000000000e+02 3.811049825140008895e+00
6.380000000000000000e+02 4.231254446380415146e+00
6.390000000000000000e+02 4.774246592408205814e+00
6.400000000000000000e+02 5.501349295581834831e+00
6.410000000000000000e+02 5.107885638456743926e+00
6.420000000000000000e+02 5.103953047500521478e+00
6.430000000000000000e+02 5.641154796307843888e+00
6.440000000000000000e+02 6.054372433105162266e+00
6.450000000000000000e+02 5.977549109083369672e+00
6.460000000000000000e+02 6.026701672682013289e+00
6.470000000000000000e+02 5.903925214893175344e+00
6.480000000000000000e+02 6.064133141227713963e+00
6.490000000000000000e+02 6.273825488902720515e+00
6.500000000000000000e+02 6.358610609209709885e+00
6.510000000000000000e+02 6.157468316051412316e+00
6.520000000000000000e+02 5.398796018046056133e+00
6.530000000000000000e+02 5.473140669778049805e+00
6.540000000000000000e+02 5.436666779552046691e+00
6.550000000000000000e+02 4.916339608587425580e+00
6.560000000000000000e+02 4.588574896701929084e+00
6.570000000000000000e+02 4.683782624637075287e+00
6.580000000000000000e+02 3.835214554449274615e+00
6.590000000000000000e+02 3.563183943995022140e+00
6.600000000000000000e+02 3.674685036092100177e+00
6.610000000000000000e+02 3.625871661273589730e+00
6.620000000000000000e+02 3.269619668326069650e+00
6.630000000000000000e+02 2.951609468160131033e+00
6.640000000000000000e+02 2.885527614810203367e+00
6.650000000000000000e+02 2.620667923459861548e+00
6.660000000000000000e+02 1.857398604024079081e+00
6.670000000000000000e+02 1.715461025720809385e+00
6.680000000000000000e+02 2.167232996266335032e+00
6.690000000000000000e+02 2.344293949595519511e+00
6.700000000000000000e+02 1.889476259904584676e+00
6.710000000000000000e+02 2.130959158855246116e+00
6.720000000000000000e+02 2.255738143331258883e+00
6.730000000000000000e+02 2.167039889234598338e+00
6.740000000000000000e+02 1.891237725425135574e+00
6.750000000000000000e+02 1.466297049574772693e+00
6.760000000000000000e+02 1.145134622899812937e+00
6.770000000000000000e+02 1.671559477395271553e+00
6.780000000000000000e+02 2.053305699439950782e+00
6.790000000000000000e+02 1.813869786766234782e+00
6.800000000000000000e+02 1.626167153048527769e+00
6.810000000000000000e+02 1.877852078406969438e+00
6.820000000000000000e+02 1.996840658991910322e+00
6.830000000000000000e+02 1.826503464744918537e+00
6.840000000000000000e+02 2.007436679734493801e+00
6.850000000000000000e+02 1.936838991910394325e+00
6.860000000000000000e+02 1.635867744451358075e+00
6.870000000000000000e+02 1.305635665214688990e+00
6.880000000000000000e+02 1.084673002074260761e+00
6.890000000000000000e+02 1.382483285210536428e+00
6.900000000000000000e+02 1.642735970752954522e+00
6.910000000000000000e+02 1.576127271313011891e+00
6.920000000000000000e+02 7.013913951462438234e-01
6.930000000000000000e+02 1.539454077280571487e-01
6.940000000000000000e+02 6.846993337481794839e-01
6.950000000000000000e+02 4.514789612113691009e-01
6.960000000000000000e+02 7.988814038581125709e-01
6.970000000000000000e+02 7.736735764364306434e-01
6.980000000000000000e+02 2.991611706963355766e-01
6.990000000000000000e+02 1.069079630781989837e-01
7.000000000000000000e+02 6.228883658232885201e-02
7.010000000000000000e+02 3.481931356565042823e-01
7.020000000000000000e+02 4.252221819124663016e-01
7.030000000000000000e+02 3.984292206553308180e-01
7.040000000000000000e+02 4.240861115951040095e-01
7.050000000000000000e+02 1.657982825032893182e-01
7.060000000000000000e+02 1.268633243467437791e-02
7.070000000000000000e+02 8.854732014436982046e-02
7.080000000000000000e+02 2.650920282701110797e-02
7.090000000000000000e+02 7.771976732144031397e-02
7.100000000000000000e+02 1.032532831362797943e-01
7.110000000000000000e+02 1.740763322555367865e-01
7.120000000000000000e+02 5.986871798382032983e-01
7.130000000000000000e+02 7.021016672889525134e-01
7.140000000000000000e+02 2.768928761667769911e-01
7.150000000000000000e+02 5.779725766459224701e-02
7.160000000000000000e+02 9.790024668367584837e-02
7.170000000000000000e+02 4.081806081725785074e-01
7.180000000000000000e+02 6.691620989421284138e-01
7.190000000000000000e+02 6.103757909147460303e-01
7.200000000000000000e+02 5.362696228998117265e-01
7.210000000000000000e+02 5.024569475212595782e-01
7.220000000000000000e+02 8.880307884256579687e-01
7.230000000000000000e+02 9.088421617921478290e-01
7.240000000000000000e+02 7.496891101431276683e-01
7.250000000000000000e+02 6.854001279817529824e-01
7.260000000000000000e+02 6.451486798009012924e-01
7.270000000000000000e+02 9.105995013482626188e-01
7.280000000000000000e+02 1.028076818294963335e+00
7.290000000000000000e+02 6.239281101202920343e-01
7.300000000000000000e+02 5.511478718108261399e-01
7.310000000000000000e+02 8.979743157021347066e-01
7.320000000000000000e+02 1.006038761509745694e+00
7.330000000000000000e+02 7.337003316739237890e-01
7.340000000000000000e+02 8.187112837585583947e-01
7.350000000000000000e+02 8.321101808378249531e-01
7.360000000000000000e+02 6.990194555071496119e-01
7.370000000000000000e+02 7.506640647168725256e-01
7.380000000000000000e+02 7.936519527167243959e-01
7.390000000000000000e+02 4.130752003733576538e-01
7.400000000000000000e+02 6.239298821821299690e-01
7.410000000000000000e+02 8.103142854179630206e-01
7.420000000000000000e+02 6.411302364654739572e-01
7.430000000000000000e+02 3.083216119062548999e-01
7.440000000000000000e+02 1.796507610454249337e-01
7.450000000000000000e+02 3.136260541381448719e-01
7.460000000000000000e+02 3.294729309271937079e-01
7.470000000000000000e+02 3.092838886123210340e-01
7.480000000000000000e+02 4.068581624144380071e-01
7.490000000000000000e+02 4.224388199543659406e-01
7.500000000000000000e+02 1.522993065753852904e-01
7.510000000000000000e+02 5.505805897759642742e-02
7.520000000000000000e+02 1.040851623380302654e-01
7.530000000000000000e+02 5.166976979050461050e-02
7.540000000000000000e+02 9.776245924144741362e-02
7.550000000000000000e+02 3.228226026545053529e-01
7.560000000000000000e+02 1.108084069695207674e-01
7.570000000000000000e+02 1.359097928041849423e-01
7.580000000000000000e+02 2.013200641819851144e-02
7.590000000000000000e+02 3.244852923252482951e-02
7.600000000000000000e+02 4.365538130056055566e-02
7.610000000000000000e+02 7.877630004603897174e-02
7.620000000000000000e+02 5.603404521883403877e-02
7.630000000000000000e+02 1.765467740033183769e-02
7.640000000000000000e+02 2.844066995022881406e-01
7.650000000000000000e+02 4.169564075917873147e-01
7.660000000000000000e+02 1.893887934038552823e-01
7.670000000000000000e+02 5.861231883862023928e-02
7.680000000000000000e+02 1.383469491823234587e-02
7.690000000000000000e+02 1.260994028960776489e-02
7.700000000000000000e+02 2.625452065961582648e-01
7.710000000000000000e+02 5.462195347438256743e-01
7.720000000000000000e+02 1.873562158131037159e-01
7.730000000000000000e+02 4.731433702385296619e-02
7.740000000000000000e+02 1.996364113963990106e-01
7.750000000000000000e+02 3.201968919311339867e-01
7.760000000000000000e+02 2.272025575606721470e-01
7.770000000000000000e+02 1.755910130678283165e-01
7.780000000000000000e+02 8.957533200186737488e-02
7.790000000000000000e+02 7.758352046857419637e-02
7.800000000000000000e+02 5.849117077536129805e-02
7.810000000000000000e+02 5.762172320613864196e-01
7.820000000000000000e+02 9.031150651317174649e-01
7.830000000000000000e+02 9.745611642812692654e-01
7.840000000000000000e+02 9.129035503940270413e-01
7.850000000000000000e+02 7.927120860817242765e-01
7.860000000000000000e+02 5.885530516490354858e-01
7.870000000000000000e+02 3.374524079220233563e-01
7.880000000000000000e+02 7.272337373988821962e-01
7.890000000000000000e+02 1.628059730346445022e-01
7.900000000000000000e+02 1.961258677851532850e-01
7.910000000000000000e+02 6.016067987969303532e-01
7.920000000000000000e+02 5.030806527691350505e-01
7.930000000000000000e+02 6.576628276291209829e-01
7.940000000000000000e+02 3.688463150798595436e-01
7.950000000000000000e+02 1.878307651939427059e-01
7.960000000000000000e+02 2.211173704625602476e-01
7.970000000000000000e+02 6.638482955818250097e-01
7.980000000000000000e+02 8.383358886123322140e-01
7.990000000000000000e+02 3.723446749637004949e-01
8.000000000000000000e+02 5.191744040655461578e-01
8.010000000000000000e+02 4.077915544492863309e-01
8.020000000000000000e+02 6.431184965774719986e-01
8.030000000000000000e+02 7.199411590956243945e-01
8.040000000000000000e+02 3.340311151213596896e-01
8.050000000000000000e+02 1.635482330997702904e-01
8.060000000000000000e+02 6.275163285625383613e-01
8.070000000000000000e+02 6.246538888428047054e-01
8.080000000000000000e+02 5.704964839244959229e-01
8.090000000000000000e+02 3.714786212404046495e-01
8.100000000000000000e+02 2.133335914499018618e-02
8.110000000000000000e+02 5.309614804187527681e-02
8.120000000000000000e+02 2.605254552049643957e-01
8.130000000000000000e+02 6.624003949388138635e-01
8.140000000000000000e+02 1.121314671230005111e-01
8.150000000000000000e+02 1.056096683136228953e-01
8.160000000000000000e+02 4.794135283136219949e-01
8.170000000000000000e+02 8.088345496784834499e-01
8.180000000000000000e+02 5.849522466293495260e-01
8.190000000000000000e+02 2.429671628292907615e-01
8.200000000000000000e+02 3.153322165525896392e-01
8.210000000000000000e+02 3.840682209581208068e-02
8.220000000000000000e+02 8.593294574237764216e-02
8.230000000000000000e+02 4.756328255548643025e-01
8.240000000000000000e+02 3.322478438407454604e-01
8.250000000000000000e+02 3.901721032980486059e-02
8.260000000000000000e+02 1.437182124781253428e-02
8.270000000000000000e+02 1.393417996681799997e-01
8.280000000000000000e+02 3.623735193943128374e-01
8.290000000000000000e+02 2.979762700151502020e-01
8.300000000000000000e+02 6.919486986727457767e-01
8.310000000000000000e+02 3.182259214463626362e-01
8.320000000000000000e+02 1.807735486413694082e-01
8.330000000000000000e+02 6.907823051750790200e-02
8.340000000000000000e+02 4.750555289358952549e-01
8.350000000000000000e+02 4.689114932586631590e-01
8.360000000000000000e+02 7.409285714582029003e-01
8.370000000000000000e+02 6.718915573532441288e-01
8.380000000000000000e+02 3.318518543870551674e-01
8.390000000000000000e+02 6.855807087741065953e-01
8.400000000000000000e+02 8.222283213026361226e-01
8.410000000000000000e+02 5.772470329807262157e-01
8.420000000000000000e+02 5.011940929267411082e-01
8.430000000000000000e+02 5.599252532669262150e-01
8.440000000000000000e+02 5.361385953121884373e-01
8.450000000000000000e+02 7.655100881559551151e-01
8.460000000000000000e+02 6.157918489939965268e-01
8.470000000000000000e+02 3.080429458731242520e-01
8.480000000000000000e+02 5.686480864965682835e-01
8.490000000000000000e+02 8.262466625181682511e-01
8.500000000000000000e+02 6.865892874326311457e-01
8.510000000000000000e+02 4.175933146650065431e-01
8.520000000000000000e+02 6.427430043559562156e-01
8.530000000000000000e+02 6.057667416009950845e-01
8.540000000000000000e+02 6.915547898776135405e-01
8.550000000000000000e+02 3.708055816220693357e-01
8.560000000000000000e+02 4.975409402737525077e-01
8.570000000000000000e+02 7.829218494088392433e-01
8.580000000000000000e+02 5.004313416303576290e-01
8.590000000000000000e+02 6.214355238490379962e-01
8.600000000000000000e+02 5.101387351171853268e-01
8.610000000000000000e+02 4.359102252644674325e-01
8.620000000000000000e+02 1.993279869321786246e-01
8.630000000000000000e+02 1.188322557921470679e-01
8.640000000000000000e+02 7.152423822858491320e-01
8.650000000000000000e+02 8.981331269446195531e-01
8.660000000000000000e+02 6.631923528313654614e-01
8.670000000000000000e+02 9.687795631611608727e-01
8.680000000000000000e+02 8.900127676830511536e-01
8.690000000000000000e+02 7.783173665214695447e-01
8.700000000000000000e+02 1.047214523335408209e+00
8.710000000000000000e+02 1.082631873055378335e+00
8.720000000000000000e+02 7.462827471478892249e-01
8.730000000000000000e+02 1.075841861439545077e+00
8.740000000000000000e+02 1.103024608587422017e+00
8.750000000000000000e+02 7.689558643434888374e-01
8.760000000000000000e+02 7.802265991289996094e-01
8.770000000000000000e+02 8.252699632856106415e-01
8.780000000000000000e+02 6.754863739888065099e-01
8.790000000000000000e+02 8.179431700539098182e-01
8.800000000000000000e+02 3.146167579340473641e-01
8.810000000000000000e+02 2.658946591993383568e-01
8.820000000000000000e+02 3.374584122770650230e-01
8.830000000000000000e+02 3.205087517112634177e-01
8.840000000000000000e+02 6.563071406347208425e-01
8.850000000000000000e+02 8.131899187059260514e-01
8.860000000000000000e+02 3.640652885293478302e-01
8.870000000000000000e+02 6.637541605475992812e-01
8.880000000000000000e+02 2.390414581205027034e-01
8.890000000000000000e+02 5.681041883633908968e-02
8.900000000000000000e+02 5.483772173822925033e-01
8.910000000000000000e+02 7.691969649450235424e-01
8.920000000000000000e+02 5.524129964737595211e-01
8.930000000000000000e+02 4.522956272557549506e-01
8.940000000000000000e+02 3.379951487243319508e-01
8.950000000000000000e+02 4.444193972204945609e-01
8.960000000000000000e+02 3.947205050819330152e-01
8.970000000000000000e+02 1.911430060153511690e-01
8.980000000000000000e+02 3.428260566272527399e-01
8.990000000000000000e+02 5.030830609831983269e-01
9.000000000000000000e+02 4.292261835718694796e-01
9.010000000000000000e+02 5.248526708151844966e-01
9.020000000000000000e+02 6.098203973455015303e-01
9.030000000000000000e+02 4.515679489732409846e-01
9.040000000000000000e+02 4.020944812279608205e-01
9.050000000000000000e+02 3.310371752384899113e-01
9.060000000000000000e+02 4.979339904584121346e-01
9.070000000000000000e+02 4.225978749222156772e-01
9.080000000000000000e+02 5.772979941932808723e-01
9.090000000000000000e+02 5.324145281062023782e-01
9.100000000000000000e+02 3.005516077577257694e-01
9.110000000000000000e+02 2.690565489423474843e-01
9.120000000000000000e+02 1.034044870168043112e-02
9.130000000000000000e+02 2.475356675669092288e-02
9.140000000000000000e+02 1.748515019705464413e-01
9.150000000000000000e+02 1.792395384774917166e-01
9.160000000000000000e+02 6.649539752395786096e-02
9.170000000000000000e+02 4.901874187056607518e-02
9.180000000000000000e+02 2.730492997303464175e-01
9.190000000000000000e+02 2.180254181705039984e-01
9.200000000000000000e+02 3.604456963285616600e-01
9.210000000000000000e+02 5.518717280647148504e-01
9.220000000000000000e+02 4.932805675171181292e-01
9.230000000000000000e+02 1.236774601931176776e-01
9.240000000000000000e+02 1.054796479983365204e-01
9.250000000000000000e+02 1.615660908525233808e-01
9.260000000000000000e+02 5.242339515370122993e-02
9.270000000000000000e+02 2.154677863949315542e-02
9.280000000000000000e+02 2.349010134798796001e-01
9.290000000000000000e+02 2.233591510060151941e-01
9.300000000000000000e+02 3.201353655218424493e-02
9.310000000000000000e+02 2.617800297328499656e-02
9.320000000000000000e+02 1.706906992499645712e-02
9.330000000000000000e+02 7.401199892200853447e-02
9.340000000000000000e+02 1.261559885939418368e-01
9.350000000000000000e+02 2.584915320472905287e-01
9.360000000000000000e+02 2.782485569383965074e-01
9.370000000000000000e+02 6.667149131688204777e-02
9.380000000000000000e+02 3.216219597053497914e-01
9.390000000000000000e+02 4.531903503422701762e-01
9.400000000000000000e+02 4.043489427623319643e-01
9.410000000000000000e+02 8.083963706700054708e-01
9.420000000000000000e+02 1.809219512549268272e-01
9.430000000000000000e+02 3.011869910806876938e-01
9.440000000000000000e+02 4.141367560672064574e-01
9.450000000000000000e+02 1.147518104127795424e-01
9.460000000000000000e+02 2.460044742783017158e-02
9.470000000000000000e+02 1.066895893943196894e-01
9.480000000000000000e+02 5.057371157436270082e-01
9.490000000000000000e+02 5.354055332918630228e-01
9.500000000000000000e+02 1.213943220443823023e-01
9.510000000000000000e+02 3.610587747355418209e-01
9.520000000000000000e+02 4.860339821613732236e-01
9.530000000000000000e+02 7.722270889856710507e-01
9.540000000000000000e+02 3.827227656573783388e-01
9.550000000000000000e+02 3.201696737191289666e-01
9.560000000000000000e+02 7.764619332088664727e-01
9.570000000000000000e+02 8.303258324346961539e-01
9.580000000000000000e+02 4.195073186060950809e-01
9.590000000000000000e+02 6.320365841111860172e-01
9.600000000000000000e+02 3.137466436246328511e-02
9.610000000000000000e+02 2.777619157851125564e-01
9.620000000000000000e+02 1.069271406564990534e-01
9.630000000000000000e+02 3.749840059247447899e-01
9.640000000000000000e+02 6.325187261978733044e-01
9.650000000000000000e+02 6.734358116573492259e-01
9.660000000000000000e+02 1.156733212360021357e+00
9.670000000000000000e+02 3.149290566272140990e-01
9.680000000000000000e+02 3.742573136278908863e-01
9.690000000000000000e+02 6.745923478531326012e-01
9.700000000000000000e+02 8.699423210952110797e-01
9.710000000000000000e+02 5.844769956440758474e-01
9.720000000000000000e+02 5.997264629744787356e-01
9.730000000000000000e+02 3.984510898187332839e-01
9.740000000000000000e+02 1.013156009885986253e-01
9.750000000000000000e+02 4.406446438498238249e-01
9.760000000000000000e+02 7.010366182514007893e-02
9.770000000000000000e+02 1.780413057456963211e-01
9.780000000000000000e+02 4.994624169259551660e-01
9.790000000000000000e+02 3.759248305330778472e-01
9.800000000000000000e+02 3.278404405724976711e-01
9.810000000000000000e+02 5.578098083385321093e-01
9.820000000000000000e+02 8.372059605890975753e-01
9.830000000000000000e+02 8.932561032766372922e-01
9.840000000000000000e+02 5.989856565028069957e-01
9.850000000000000000e+02 8.492957031736226847e-01
9.860000000000000000e+02 9.419862642057151847e-01
9.870000000000000000e+02 2.335230260954337111e-01
9.880000000000000000e+02 3.131785438705472768e-01
9.890000000000000000e+02 5.197773542098585997e-01
9.900000000000000000e+02 7.559019203484744764e-01
9.910000000000000000e+02 5.774996496577506910e-01
9.920000000000000000e+02 5.957380549564481598e-01
9.930000000000000000e+02 7.200528396598293579e-01
9.940000000000000000e+02 6.598930379589367234e-01
9.950000000000000000e+02 7.614955015556869045e-01
9.960000000000000000e+02 6.574153549056297452e-01
9.970000000000000000e+02 8.304535785106786916e-01
9.980000000000000000e+02 7.662425003111201782e-01
9.990000000000000000e+02 6.873250130678374425e-01
1.000000000000000000e+03 7.192108098693762441e-01
1.001000000000000000e+03 8.137661535269726798e-01
1.002000000000000000e+03 9.205423070539434649e-01
1.003000000000000000e+03 9.856319730848863703e-01
1.004000000000000000e+03 8.237258672199075926e-01
1.005000000000000000e+03 8.652210767634845867e-01
1.006000000000000000e+03 1.047933406638996257e+00
1.007000000000000000e+03 8.067740684647290994e-01
1.008000000000000000e+03 7.199500871369071131e-01
1.009000000000000000e+03 1.108106912863052740e+00
1.010000000000000000e+03 5.552505518672131712e-01
1.011000000000000000e+03 8.657498198757683783e-01
1.012000000000000000e+03 1.952659709543521638e-01
1.013000000000000000e+03 7.115358791078846279e-02
1.014000000000000000e+03 9.537084278215719746e-02
1.015000000000000000e+03 2.419569923754956997e-01
1.016000000000000000e+03 2.381499211618371692e-01
1.017000000000000000e+03 7.138275107883854109e-02
1.018000000000000000e+03 1.133975806680442844e-01
1.019000000000000000e+03 2.487010124481329187e-01
1.020000000000000000e+03 3.168246867219854934e-01
1.021000000000000000e+03 1.025410755186745737e+00
1.022000000000000000e+03 7.297270062240747146e-01
1.023000000000000000e+03 4.961660518672212916e-01
1.024000000000000000e+03 8.416623278008332765e-01
1.025000000000000000e+03 6.239839875517911860e-01
1.026000000000000000e+03 2.705295518671512744e-01
1.027000000000000000e+03 7.157398755186803463e-01
1.028000000000000000e+03 5.224200248447277151e-01
1.029000000000000000e+03 8.401784170124446671e-01
1.030000000000000000e+03 4.754203900415103767e-01
1.031000000000000000e+03 6.468834336099588134e-01
1.032000000000000000e+03 6.413982256728660847e-01
1.033000000000000000e+03 5.833722282157686179e-01
1.034000000000000000e+03 4.266424813278073547e-01
1.035000000000000000e+03 6.261068838174590478e-01
1.036000000000000000e+03 9.281164419088269169e-01
1.037000000000000000e+03 4.397451369294038681e-01
1.038000000000000000e+03 1.631853037344396684e+00
1.039000000000000000e+03 1.142312726141045065e+00
1.040000000000000000e+03 1.099795486542442191e+00
1.041000000000000000e+03 8.666803734439858520e-01
1.042000000000000000e+03 5.271972738589059126e-01
1.043000000000000000e+03 4.797147012448099157e-01
1.044000000000000000e+03 6.129409004149328766e-01
1.045000000000000000e+03 7.787843734439915400e-01
1.046000000000000000e+03 9.362278651452293765e-01
1.047000000000000000e+03 7.151906784232523462e-01
1.048000000000000000e+03 6.248591161825732820e-01
1.049000000000000000e+03 7.914613402489620864e-01
1.050000000000000000e+03 6.845871120332051030e-01
1.051000000000000000e+03 6.725883070539362407e-01
1.052000000000000000e+03 9.421486252588090471e-01
1.053000000000000000e+03 8.822812302904423643e-01
1.054000000000000000e+03 6.487225145228074918e-01
1.055000000000000000e+03 9.134645000000000126e-01
1.056000000000000000e+03 1.035074939834023544e+00
1.057000000000000000e+03 8.404793858921441041e-01
1.058000000000000000e+03 4.894643485477215283e-01
1.059000000000000000e+03 1.176414402489658118e+00
1.060000000000000000e+03 9.082009336098907371e-01
1.061000000000000000e+03 4.689820683229956599e-01
1.062000000000000000e+03 6.207056618257316138e-01
1.063000000000000000e+03 8.245764502074547364e-01
1.064000000000000000e+03 4.150858253901175687e-01
1.065000000000000000e+03 3.155036937053766477e-02
1.066000000000000000e+03 5.972249892530585164e-02
1.067000000000000000e+03 3.949234564315453055e-01
1.068000000000000000e+03 5.471372448132838517e-01
1.069000000000000000e+03 2.636494451345700041e-01
1.070000000000000000e+03 3.813282012448403480e-01
1.071000000000000000e+03 4.208514564315477546e-01
1.072000000000000000e+03 1.787307925311252266e-01
1.073000000000000000e+03 9.307968481120720838e-02
1.074000000000000000e+03 1.678124273858949689e-01
1.075000000000000000e+03 5.284237439419382093e-02
1.076000000000000000e+03 1.502653112033210114e-01
1.077000000000000000e+03 2.313763747412074523e-01
1.078000000000000000e+03 3.715430601659611143e-01
1.079000000000000000e+03 5.977732655601659673e-01
1.080000000000000000e+03 1.676986476576549367e-01
1.081000000000000000e+03 2.240799526452434687e-01
1.082000000000000000e+03 6.560756556016559271e-01
1.083000000000000000e+03 3.877073983402231638e-01
1.084000000000000000e+03 1.106070950871630709e-01
1.085000000000000000e+03 4.109598755186746333e-01
1.086000000000000000e+03 9.960340001244843977e-02
1.087000000000000000e+03 8.093684346054744183e-03
1.088000000000000000e+03 1.391275316390087197e-02
1.089000000000000000e+03 4.059499902280281139e-03
1.090000000000000000e+03 7.056599656728740344e-02
1.091000000000000000e+03 1.435709460581141295e-01
1.092000000000000000e+03 2.776429460580984721e-01
1.093000000000000000e+03 2.683911078838183695e-01
1.094000000000000000e+03 4.843719979296322031e-01
1.095000000000000000e+03 5.991190062240907555e-01
1.096000000000000000e+03 2.917647717842338784e-01
1.097000000000000000e+03 4.451881452282200891e-01
1.098000000000000000e+03 3.658293726708122251e-01
1.099000000000000000e+03 4.037080871369272961e-01
1.100000000000000000e+03 5.515443568463690438e-02
1.101000000000000000e+03 2.896121908627081742e-01
1.102000000000000000e+03 5.772944979253031850e-01
1.103000000000000000e+03 4.393433195020751136e-01
1.104000000000000000e+03 3.529393319502197590e-01
1.105000000000000000e+03 4.111369854771483867e-01
1.106000000000000000e+03 6.328049856639007820e-02
1.107000000000000000e+03 6.428971340663747203e-02
1.108000000000000000e+03 1.984209502075069964e-01
1.109000000000000000e+03 5.829678464730172482e-01
1.110000000000000000e+03 7.573075927801192764e-02
1.111000000000000000e+03 3.910540954011281767e-01
1.112000000000000000e+03 7.152413485477266963e-01
1.113000000000000000e+03 4.744994398340282582e-01
1.114000000000000000e+03 2.594703796680397079e-01
1.115000000000000000e+03 3.869185057261272098e-02
1.116000000000000000e+03 1.919258091285856449e-01
1.117000000000000000e+03 8.538934854771773608e-01
1.118000000000000000e+03 5.337670497925259827e-01
1.119000000000000000e+03 5.701081863354071633e-01
1.120000000000000000e+03 2.892592697095460741e-01
1.121000000000000000e+03 5.141831224066564232e-01
1.122000000000000000e+03 4.459944792531140845e-01
1.123000000000000000e+03 9.098729301449529072e-02
1.124000000000000000e+03 3.618095435684857974e-02
1.125000000000000000e+03 2.264179128631154669e-01
1.126000000000000000e+03 7.402726058090963734e-01
1.127000000000000000e+03 8.267300144927540728e-01
1.128000000000000000e+03 5.422869605808947613e-01
1.129000000000000000e+03 2.247992634854973082e-01
1.130000000000000000e+03 7.521013838174265276e-01
1.131000000000000000e+03 4.566625403726630172e-01
1.132000000000000000e+03 3.825567041078897085e-02
1.133000000000000000e+03 2.642896431534919599e-01
1.134000000000000000e+03 2.365200411327863517e-01
1.135000000000000000e+03 1.901062946058401648e-01
1.136000000000000000e+03 6.730728755186744516e-01
1.137000000000000000e+03 4.837361120332025477e-01
1.138000000000000000e+03 4.176280020746919175e-01
1.139000000000000000e+03 7.529388962655800821e-01
1.140000000000000000e+03 6.832867219917124757e-01
1.141000000000000000e+03 2.719326473029030078e-01
1.142000000000000000e+03 4.346296348547945554e-01
1.143000000000000000e+03 7.611493913043555493e-01
1.144000000000000000e+03 3.509689399356973882e-01
1.145000000000000000e+03 1.350137224191067520e-01
1.146000000000000000e+03 4.546905103734474318e-01
1.147000000000000000e+03 5.432109170124319597e-01
1.148000000000000000e+03 5.346940434782588847e-01
1.149000000000000000e+03 1.262696233526831580e-01
1.150000000000000000e+03 1.356446265560078135e-01
1.151000000000000000e+03 2.396087842323632033e-01
1.152000000000000000e+03 2.036009565217344330e-01
1.153000000000000000e+03 3.309973467013439807e-02
1.154000000000000000e+03 2.040640435684493714e-01
1.155000000000000000e+03 2.015397157676331874e-01
1.156000000000000000e+03 1.613972546583904710e-01
1.157000000000000000e+03 3.756575726140864990e-01
1.158000000000000000e+03 5.197697842323673045e-01
1.159000000000000000e+03 2.219221784232091044e-01
1.160000000000000000e+03 6.884941886956133517e-02
1.161000000000000000e+03 2.737842074688805472e-01
1.162000000000000000e+03 3.208582209522595902e-02
1.163000000000000000e+03 1.831413008298943546e-01
1.164000000000000000e+03 2.587375165975149272e-01
1.165000000000000000e+03 4.654322025726145839e-02
1.166000000000000000e+03 1.937950168631021319e-01
1.167000000000000000e+03 4.311530248962653911e-01
1.168000000000000000e+03 3.222686141078898725e-01
1.169000000000000000e+03 2.393596493775905776e-01
1.170000000000000000e+03 3.421647427386386719e-01
1.171000000000000000e+03 6.743728298755292672e-01
1.172000000000000000e+03 4.641036521739134724e-01
1.173000000000000000e+03 3.178342780083350805e-01
1.174000000000000000e+03 9.211585311202946658e-01
1.175000000000000000e+03 9.915337219917041978e-01
1.176000000000000000e+03 8.853761991701186718e-01
1.177000000000000000e+03 4.157871449275480913e-01
1.178000000000000000e+03 1.525753713692944435e-01
1.179000000000000000e+03 3.576254958506260850e-01
1.180000000000000000e+03 6.298363029045770389e-01
1.181000000000000000e+03 6.635766625258820994e-01
1.182000000000000000e+03 5.287163775933630960e-01
1.183000000000000000e+03 3.525153900414859098e-01
1.184000000000000000e+03 2.286775643153608206e-01
1.185000000000000000e+03 3.642228153526878009e-01
1.186000000000000000e+03 5.253149730290369579e-01
1.187000000000000000e+03 5.063996277802031154e-02
1.188000000000000000e+03 6.933173070538867222e-01
1.189000000000000000e+03 4.673173229813761820e-01
1.190000000000000000e+03 3.170104688796913650e-01
1.191000000000000000e+03 2.756359668049843670e-01
1.192000000000000000e+03 1.569630089709396492e-01
1.193000000000000000e+03 1.309870331950168110e-01
1.194000000000000000e+03 3.923805103734432365e-01
1.195000000000000000e+03 1.743415290456518385e-01
1.196000000000000000e+03 2.882881639004142849e-01
1.197000000000000000e+03 2.191833581780537332e-01
1.198000000000000000e+03 2.367154979253085767e-01
1.199000000000000000e+03 2.647606307053929076e-01
1.200000000000000000e+03 3.139324107883795789e-01
1.201000000000000000e+03 7.515808628778777867e-02
1.202000000000000000e+03 6.036101721991093960e-01
1.203000000000000000e+03 5.062794896265461198e-01
1.204000000000000000e+03 2.420095995850821136e-01
1.205000000000000000e+03 6.253640850622378400e-01
1.206000000000000000e+03 4.696711925465937298e-01
1.207000000000000000e+03 1.437798506224088613e-01
1.208000000000000000e+03 4.773272323651767679e-01
1.209000000000000000e+03 4.634603236514570068e-01
1.210000000000000000e+03 3.006579151138664141e-01
1.211000000000000000e+03 2.964282821576513238e-01
1.212000000000000000e+03 3.635189564314812993e-01
1.213000000000000000e+03 8.029950788381728932e-01
1.214000000000000000e+03 6.113531825725937452e-01
1.215000000000000000e+03 4.893380456431574155e-01
1.216000000000000000e+03 5.213583236514542918e-01
1.217000000000000000e+03 4.128662199170093361e-01
1.218000000000000000e+03 3.512966128364498064e-01
1.219000000000000000e+03 4.189843817427423844e-01
1.220000000000000000e+03 4.476776265560148405e-01
1.221000000000000000e+03 7.825982800830010300e-01
1.222000000000000000e+03 6.883036348547856287e-01
1.223000000000000000e+03 4.705815435684718162e-01
1.224000000000000000e+03 2.620993070539430758e-01
1.225000000000000000e+03 3.401770290456380130e-01
1.226000000000000000e+03 4.809801844720427988e-02
1.227000000000000000e+03 6.990172999377651519e-02
1.228000000000000000e+03 2.836598298755318437e-01
1.229000000000000000e+03 1.440043087199614491e-01
1.230000000000000000e+03 1.039028410973030919e-01
1.231000000000000000e+03 4.656108091286498274e-01
1.232000000000000000e+03 6.401731742738639985e-01
1.233000000000000000e+03 3.470086680498140064e-01
1.234000000000000000e+03 2.399573609958504383e-01
1.235000000000000000e+03 9.667685373444430130e-01
1.236000000000000000e+03 8.586297012448427246e-01
1.237000000000000000e+03 1.308725726140719768e-02
1.238000000000000000e+03 6.297096865146332989e-02
1.239000000000000000e+03 5.900280373443765880e-01
1.240000000000000000e+03 4.015515394191057075e-01
1.241000000000000000e+03 6.186834356846558913e-01
1.242000000000000000e+03 4.126845020746119364e-01
1.243000000000000000e+03 5.751391097094685906e-02
1.244000000000000000e+03 2.172012893402440192e-01
1.245000000000000000e+03 6.122479709543633408e-01
1.246000000000000000e+03 4.222151120332168217e-01
1.247000000000000000e+03 1.271904187329114255e-01
1.248000000000000000e+03 7.267148672199177373e-01
1.249000000000000000e+03 4.337767724063404384e-02
1.250000000000000000e+03 4.401339319087017865e-02
1.251000000000000000e+03 8.244766956521766277e-01
1.252000000000000000e+03 2.200310912862922796e-01
1.253000000000000000e+03 4.807577012447546982e-01
1.254000000000000000e+03 5.377666659751132450e-01
1.255000000000000000e+03 5.763740724637771429e-01
1.256000000000000000e+03 9.553503692946105907e-01
1.257000000000000000e+03 9.464096597510643916e-01
1.258000000000000000e+03 6.691320788381739382e-01
1.259000000000000000e+03 3.527506708073833708e-01
1.260000000000000000e+03 1.071452621182766712e-01
1.261000000000000000e+03 7.260203921161658691e-01
1.262000000000000000e+03 9.753425767634887888e-01
1.263000000000000000e+03 8.511205892116173732e-01
1.264000000000000000e+03 1.241640796680502312e+00
1.265000000000000000e+03 9.528272157676268561e-01
1.266000000000000000e+03 4.364375186721818900e-01
1.267000000000000000e+03 4.749287261410417016e-01
1.268000000000000000e+03 9.473574605809087501e-01
1.269000000000000000e+03 1.208796653526970077e+00
1.270000000000000000e+03 6.634319356846384297e-01
1.271000000000000000e+03 3.837876618256860772e-01
1.272000000000000000e+03 4.633961452282033822e-01
1.273000000000000000e+03 5.138983941909340825e-01
1.274000000000000000e+03 1.060689240663887256e+00
1.275000000000000000e+03 8.773150124481365886e-01
1.276000000000000000e+03 6.082299068322691848e-01
1.277000000000000000e+03 4.594743775935783425e-02
1.278000000000000000e+03 1.226116500000016041e+00
1.279000000000000000e+03 5.117825435684553170e-01
1.280000000000000000e+03 3.340594161490594294e-01
1.281000000000000000e+03 1.269584390373546534e-01
1.282000000000000000e+03 1.113729419087135381e-01
1.283000000000000000e+03 3.869894366389250995e-02
1.284000000000000000e+03 0.000000000000000000e+00
1.285000000000000000e+03 0.000000000000000000e+00
1.286000000000000000e+03 0.000000000000000000e+00
1.287000000000000000e+03 0.000000000000000000e+00
1.288000000000000000e+03 0.000000000000000000e+00
1.289000000000000000e+03 0.000000000000000000e+00
1.290000000000000000e+03 0.000000000000000000e+00
1.291000000000000000e+03 0.000000000000000000e+00
1.292000000000000000e+03 0.000000000000000000e+00
1.293000000000000000e+03 0.000000000000000000e+00
1.294000000000000000e+03 0.000000000000000000e+00
1.295000000000000000e+03 0.000000000000000000e+00
1.296000000000000000e+03 0.000000000000000000e+00
1.297000000000000000e+03 0.000000000000000000e+00
1.298000000000000000e+03 0.000000000000000000e+00
1.299000000000000000e+03 0.000000000000000000e+00
1.300000000000000000e+03 0.000000000000000000e+00
1.301000000000000000e+03 0.000000000000000000e+00
1.302000000000000000e+03 0.000000000000000000e+00
1.303000000000000000e+03 0.000000000000000000e+00
1.304000000000000000e+03 0.000000000000000000e+00
1.305000000000000000e+03 0.000000000000000000e+00
1.306000000000000000e+03 0.000000000000000000e+00
1.307000000000000000e+03 0.000000000000000000e+00
1.308000000000000000e+03 0.000000000000000000e+00
1.309000000000000000e+03 0.000000000000000000e+00
1.310000000000000000e+03 0.000000000000000000e+00
1.311000000000000000e+03 0.000000000000000000e+00
1.312000000000000000e+03 0.000000000000000000e+00
1.313000000000000000e+03 0.000000000000000000e+00
1.314000000000000000e+03 0.000000000000000000e+00
1.315000000000000000e+03 0.000000000000000000e+00
1.316000000000000000e+03 0.000000000000000000e+00
1.317000000000000000e+03 0.000000000000000000e+00
1.318000000000000000e+03 0.000000000000000000e+00
1.319000000000000000e+03 0.000000000000000000e+00
1.320000000000000000e+03 0.000000000000000000e+00
1.321000000000000000e+03 0.000000000000000000e+00
1.322000000000000000e+03 0.000000000000000000e+00
1.323000000000000000e+03 0.000000000000000000e+00
1.324000000000000000e+03 0.000000000000000000e+00
1.325000000000000000e+03 0.000000000000000000e+00
1.326000000000000000e+03 0.000000000000000000e+00
1.327000000000000000e+03 0.000000000000000000e+00
1.328000000000000000e+03 0.000000000000000000e+00
1.329000000000000000e+03 0.000000000000000000e+00
1.330000000000000000e+03 0.000000000000000000e+00
1.331000000000000000e+03 0.000000000000000000e+00
1.332000000000000000e+03 0.000000000000000000e+00
1.333000000000000000e+03 0.000000000000000000e+00
1.334000000000000000e+03 0.000000000000000000e+00
1.335000000000000000e+03 0.000000000000000000e+00
1.336000000000000000e+03 0.000000000000000000e+00
1.337000000000000000e+03 0.000000000000000000e+00
1.338000000000000000e+03 0.000000000000000000e+00
1.339000000000000000e+03 0.000000000000000000e+00
1.340000000000000000e+03 0.000000000000000000e+00
1.341000000000000000e+03 0.000000000000000000e+00
1.342000000000000000e+03 0.000000000000000000e+00
1.343000000000000000e+03 0.000000000000000000e+00
1.344000000000000000e+03 0.000000000000000000e+00
1.345000000000000000e+03 0.000000000000000000e+00
1.346000000000000000e+03 0.000000000000000000e+00
1.347000000000000000e+03 0.000000000000000000e+00
1.348000000000000000e+03 0.000000000000000000e+00
1.349000000000000000e+03 0.000000000000000000e+00
1.350000000000000000e+03 0.000000000000000000e+00
1.351000000000000000e+03 0.000000000000000000e+00
1.352000000000000000e+03 0.000000000000000000e+00
1.353000000000000000e+03 0.000000000000000000e+00
1.354000000000000000e+03 0.000000000000000000e+00
1.355000000000000000e+03 0.000000000000000000e+00
1.356000000000000000e+03 0.000000000000000000e+00
1.357000000000000000e+03 0.000000000000000000e+00
1.358000000000000000e+03 0.000000000000000000e+00
1.359000000000000000e+03 0.000000000000000000e+00
1.360000000000000000e+03 0.000000000000000000e+00
1.361000000000000000e+03 0.000000000000000000e+00
1.362000000000000000e+03 0.000000000000000000e+00
1.363000000000000000e+03 0.000000000000000000e+00
1.364000000000000000e+03 0.000000000000000000e+00
1.365000000000000000e+03 0.000000000000000000e+00
1.366000000000000000e+03 0.000000000000000000e+00
1.367000000000000000e+03 0.000000000000000000e+00
1.368000000000000000e+03 0.000000000000000000e+00
1.369000000000000000e+03 0.000000000000000000e+00
1.370000000000000000e+03 0.000000000000000000e+00
1.371000000000000000e+03 0.000000000000000000e+00
1.372000000000000000e+03 0.000000000000000000e+00
1.373000000000000000e+03 0.000000000000000000e+00
1.374000000000000000e+03 0.000000000000000000e+00
1.375000000000000000e+03 0.000000000000000000e+00
1.376000000000000000e+03 0.000000000000000000e+00
1.377000000000000000e+03 0.000000000000000000e+00
1.378000000000000000e+03 0.000000000000000000e+00
1.379000000000000000e+03 0.000000000000000000e+00
1.380000000000000000e+03 0.000000000000000000e+00
1.381000000000000000e+03 0.000000000000000000e+00
1.382000000000000000e+03 0.000000000000000000e+00
1.383000000000000000e+03 0.000000000000000000e+00
1.384000000000000000e+03 0.000000000000000000e+00
1.385000000000000000e+03 0.000000000000000000e+00
1.386000000000000000e+03 0.000000000000000000e+00
1.387000000000000000e+03 0.000000000000000000e+00
1.388000000000000000e+03 0.000000000000000000e+00
1.389000000000000000e+03 0.000000000000000000e+00
1.390000000000000000e+03 0.000000000000000000e+00
1.391000000000000000e+03 0.000000000000000000e+00
1.392000000000000000e+03 0.000000000000000000e+00
1.393000000000000000e+03 0.000000000000000000e+00
1.394000000000000000e+03 0.000000000000000000e+00
1.395000000000000000e+03 0.000000000000000000e+00
1.396000000000000000e+03 0.000000000000000000e+00
1.397000000000000000e+03 0.000000000000000000e+00
1.398000000000000000e+03 0.000000000000000000e+00
1.399000000000000000e+03 0.000000000000000000e+00
1.400000000000000000e+03 0.000000000000000000e+00
1.401000000000000000e+03 0.000000000000000000e+00
1.402000000000000000e+03 0.000000000000000000e+00
1.403000000000000000e+03 0.000000000000000000e+00
1.404000000000000000e+03 0.000000000000000000e+00
1.405000000000000000e+03 0.000000000000000000e+00
1.406000000000000000e+03 0.000000000000000000e+00
1.407000000000000000e+03 0.000000000000000000e+00
1.408000000000000000e+03 0.000000000000000000e+00
1.409000000000000000e+03 0.000000000000000000e+00
1.410000000000000000e+03 0.000000000000000000e+00
1.411000000000000000e+03 0.000000000000000000e+00
1.412000000000000000e+03 0.000000000000000000e+00
1.413000000000000000e+03 0.000000000000000000e+00
1.414000000000000000e+03 0.000000000000000000e+00
1.415000000000000000e+03 0.000000000000000000e+00
1.416000000000000000e+03 0.000000000000000000e+00
1.417000000000000000e+03 0.000000000000000000e+00
1.418000000000000000e+03 0.000000000000000000e+00
1.419000000000000000e+03 0.000000000000000000e+00
1.420000000000000000e+03 0.000000000000000000e+00
1.421000000000000000e+03 0.000000000000000000e+00
1.422000000000000000e+03 0.000000000000000000e+00
1.423000000000000000e+03 0.000000000000000000e+00
1.424000000000000000e+03 0.000000000000000000e+00
1.425000000000000000e+03 0.000000000000000000e+00
1.426000000000000000e+03 0.000000000000000000e+00
1.427000000000000000e+03 0.000000000000000000e+00
1.428000000000000000e+03 0.000000000000000000e+00
1.429000000000000000e+03 0.000000000000000000e+00
1.430000000000000000e+03 0.000000000000000000e+00
1.431000000000000000e+03 0.000000000000000000e+00
1.432000000000000000e+03 0.000000000000000000e+00
1.433000000000000000e+03 0.000000000000000000e+00
1.434000000000000000e+03 0.000000000000000000e+00
1.435000000000000000e+03 0.000000000000000000e+00
1.436000000000000000e+03 0.000000000000000000e+00
1.437000000000000000e+03 0.000000000000000000e+00
1.438000000000000000e+03 0.000000000000000000e+00
1.439000000000000000e+03 0.000000000000000000e+00
1.440000000000000000e+03 0.000000000000000000e+00
1.441000000000000000e+03 0.000000000000000000e+00
1.442000000000000000e+03 0.000000000000000000e+00
1.443000000000000000e+03 0.000000000000000000e+00
1.444000000000000000e+03 0.000000000000000000e+00
1.445000000000000000e+03 0.000000000000000000e+00
1.446000000000000000e+03 0.000000000000000000e+00
1.447000000000000000e+03 0.000000000000000000e+00
1.448000000000000000e+03 0.000000000000000000e+00
1.449000000000000000e+03 0.000000000000000000e+00
1.450000000000000000e+03 0.000000000000000000e+00
1.451000000000000000e+03 0.000000000000000000e+00
1.452000000000000000e+03 0.000000000000000000e+00
1.453000000000000000e+03 0.000000000000000000e+00
1.454000000000000000e+03 0.000000000000000000e+00
1.455000000000000000e+03 0.000000000000000000e+00
1.456000000000000000e+03 0.000000000000000000e+00
1.457000000000000000e+03 0.000000000000000000e+00
1.458000000000000000e+03 0.000000000000000000e+00
1.459000000000000000e+03 0.000000000000000000e+00
1.460000000000000000e+03 0.000000000000000000e+00
1.461000000000000000e+03 0.000000000000000000e+00
1.462000000000000000e+03 0.000000000000000000e+00
1.463000000000000000e+03 0.000000000000000000e+00
1.464000000000000000e+03 0.000000000000000000e+00
1.465000000000000000e+03 0.000000000000000000e+00
1.466000000000000000e+03 0.000000000000000000e+00
1.467000000000000000e+03 0.000000000000000000e+00
1.468000000000000000e+03 0.000000000000000000e+00
1.469000000000000000e+03 0.000000000000000000e+00
1.470000000000000000e+03 0.000000000000000000e+00
1.471000000000000000e+03 0.000000000000000000e+00
1.472000000000000000e+03 0.000000000000000000e+00
1.473000000000000000e+03 0.000000000000000000e+00
1.474000000000000000e+03 0.000000000000000000e+00
1.475000000000000000e+03 0.000000000000000000e+00
1.476000000000000000e+03 0.000000000000000000e+00
1.477000000000000000e+03 0.000000000000000000e+00
1.478000000000000000e+03 0.000000000000000000e+00
1.479000000000000000e+03 0.000000000000000000e+00
1.480000000000000000e+03 0.000000000000000000e+00
1.481000000000000000e+03 0.000000000000000000e+00
1.482000000000000000e+03 0.000000000000000000e+00
1.483000000000000000e+03 0.000000000000000000e+00
1.484000000000000000e+03 0.000000000000000000e+00
1.485000000000000000e+03 0.000000000000000000e+00
1.486000000000000000e+03 0.000000000000000000e+00
1.487000000000000000e+03 0.000000000000000000e+00
1.488000000000000000e+03 0.000000000000000000e+00
1.489000000000000000e+03 0.000000000000000000e+00
1.490000000000000000e+03 0.000000000000000000e+00
1.491000000000000000e+03 0.000000000000000000e+00
1.492000000000000000e+03 0.000000000000000000e+00
1.493000000000000000e+03 0.000000000000000000e+00
1.494000000000000000e+03 0.000000000000000000e+00
1.495000000000000000e+03 0.000000000000000000e+00
1.496000000000000000e+03 0.000000000000000000e+00
1.497000000000000000e+03 0.000000000000000000e+00
1.498000000000000000e+03 0.000000000000000000e+00
1.499000000000000000e+03 0.000000000000000000e+00
1.500000000000000000e+03 0.000000000000000000e+00
