1.010000000000000000e+02 0.000000000000000000e+00
1.020000000000000000e+02 0.000000000000000000e+00
1.030000000000000000e+02 0.000000000000000000e+00
1.040000000000000000e+02 0.000000000000000000e+00
1.050000000000000000e+02 0.000000000000000000e+00
1.060000000000000000e+02 0.000000000000000000e+00
1.070000000000000000e+02 0.000000000000000000e+00
1.080000000000000000e+02 0.000000000000000000e+00
1.090000000000000000e+02 0.000000000000000000e+00
1.100000000000000000e+02 0.000000000000000000e+00
1.110000000000000000e+02 0.000000000000000000e+00
1.120000000000000000e+02 0.000000000000000000e+00
1.130000000000000000e+02 0.000000000000000000e+00
1.140000000000000000e+02 0.000000000000000000e+00
1.150000000000000000e+02 0.000000000000000000e+00
1.160000000000000000e+02 0.000000000000000000e+00
1.170000000000000000e+02 0.000000000000000000e+00
1.180000000000000000e+02 0.000000000000000000e+00
1.190000000000000000e+02 0.000000000000000000e+00
1.200000000000000000e+02 0.000000000000000000e+00
1.210000000000000000e+02 0.000000000000000000e+00
1.220000000000000000e+02 0.000000000000000000e+00
1.230000000000000000e+02 0.000000000000000000e+00
1.240000000000000000e+02 0.000000000000000000e+00
1.250000000000000000e+02 0.000000000000000000e+00
1.260000000000000000e+02 0.000000000000000000e+00
1.270000000000000000e+02 0.000000000000000000e+00
1.280000000000000000e+02 0.000000000000000000e+00
1.290000000000000000e+02 0.000000000000000000e+00
1.300000000000000000e+02 0.000000000000000000e+00
1.310000000000000000e+02 0.000000000000000000e+00
1.320000000000000000e+02 0.000000000000000000e+00
1.330000000000000000e+02 0.000000000000000000e+00
1.340000000000000000e+02 0.000000000000000000e+00
1.350000000000000000e+02 0.000000000000000000e+00
1.360000000000000000e+02 0.000000000000000000e+00
1.370000000000000000e+02 0.000000000000000000e+00
1.380000000000000000e+02 0.000000000000000000e+00
1.390000000000000000e+02 0.000000000000000000e+00
1.400000000000000000e+02 0.000000000000000000e+00
1.410000000000000000e+02 0.000000000000000000e+00
1.420000000000000000e+02 0.000000000000000000e+00
1.430000000000000000e+02 0.000000000000000000e+00
1.440000000000000000e+02 0.000000000000000000e+00
1.450000000000000000e+02 0.000000000000000000e+00
1.460000000000000000e+02 0.000000000000000000e+00
1.470000000000000000e+02 0.000000000000000000e+00
1.480000000000000000e+02 2.326844197428377115e-01
1.490000000000000000e+02 9.118240694876573738e-01
1.500000000000000000e+02 5.080094859987329681e-01
1.510000000000000000e+02 3.469918990045625096e-01
1.520000000000000000e+02 4.698405206388889255e-01
1.530000000000000000e+02 1.112318378966998367e+00
1.540000000000000000e+02 1.713968620074665994e+00
1.550000000000000000e+02 1.067061017423772018e+00
1.560000000000000000e+02 1.937718935697987366e+00
1.570000000000000000e+02 1.042794059116387118e+00
1.580000000000000000e+02 1.156318821406328468e+00
1.590000000000000000e+02 5.448933366521391264e-01
1.600000000000000000e+02 4.573989393715014590e-02
1.610000000000000000e+02 4.858155173200566779e-01
1.620000000000000000e+02 5.839799693009750658e-01
1.630000000000000000e+02 1.222769278780341029e+00
1.640000000000000000e+02 1.286226752333540446e+00
1.650000000000000000e+02 4.709126934246031793e-01
1.660000000000000000e+02 6.338941269446195514e-01
1.670000000000000000e+02 3.749683669363162997e-01
1.680000000000000000e+02 2.315182283758558390e-01
1.690000000000000000e+02 4.944142464219021260e-01
1.700000000000000000e+02 8.671114187927786432e-01
1.710000000000000000e+02 1.070553659062629892e+00
1.720000000000000000e+02 8.950136963285612035e-01
1.730000000000000000e+02 5.571663758556321122e-01
1.740000000000000000e+02 3.978384956449600440e-01
1.750000000000000000e+02 5.645689325866022346e-01
1.760000000000000000e+02 4.577933499273991180e-01
1.770000000000000000e+02 4.644278270427205646e-01
1.780000000000000000e+02 7.392223864343486772e-01
1.790000000000000000e+02 6.994581414644277517e-01
1.800000000000000000e+02 6.498670736209040122e-01
1.810000000000000000e+02 5.982104470026964327e-01
1.820000000000000000e+02 4.623907772246430015e-01
1.830000000000000000e+02 2.489481717485995671e-01
1.840000000000000000e+02 3.758909574777045126e-01
1.850000000000000000e+02 7.424345843186078708e-01
1.860000000000000000e+02 8.964244429697226790e-01
1.870000000000000000e+02 5.528785519601782106e-01
1.880000000000000000e+02 2.088957822028601752e-01
1.890000000000000000e+02 3.228465825383677879e-01
1.900000000000000000e+02 3.803575119269863580e-01
1.910000000000000000e+02 1.719574051026767636e-01
1.920000000000000000e+02 1.328892339763534935e-01
1.930000000000000000e+02 2.124965094378767627e-01
1.940000000000000000e+02 1.802281628292883298e-01
1.950000000000000000e+02 1.066132767060777170e-01
1.960000000000000000e+02 1.648690093341644569e-01
1.970000000000000000e+02 8.244008502696300103e-03
1.980000000000000000e+02 5.067120740385853972e-02
1.990000000000000000e+02 2.281786129433722721e-01
2.000000000000000000e+02 2.867856702613033604e-01
2.010000000000000000e+02 1.683469788425633329e-01
2.020000000000000000e+02 2.670909518772049407e-01
2.030000000000000000e+02 4.740431393612604127e-01
2.040000000000000000e+02 5.640867481850241338e-01
2.050000000000000000e+02 3.913181761045412266e-01
2.060000000000000000e+02 6.012705298050462221e-02
2.070000000000000000e+02 7.831001412383321869e-02
2.080000000000000000e+02 2.010141796307819140e-01
2.090000000000000000e+02 1.107011812525921235e-01
2.100000000000000000e+02 3.380568245177352771e-01
2.110000000000000000e+02 2.317194679527062873e-01
2.120000000000000000e+02 4.248171150777867860e-02
2.130000000000000000e+02 4.869454727296984586e-02
2.140000000000000000e+02 3.210742165525845015e-01
2.150000000000000000e+02 3.460604125700060263e-01
2.160000000000000000e+02 2.416353088570840080e-01
2.170000000000000000e+02 2.804589670192888518e-01
2.180000000000000000e+02 5.675600613980535947e-01
2.190000000000000000e+02 8.140561767268207349e-01
2.200000000000000000e+02 4.647840234391202863e-01
2.210000000000000000e+02 3.019743685957260726e-01
2.220000000000000000e+02 4.059364165110976308e-01
2.230000000000000000e+02 4.662775933761909020e-02
2.240000000000000000e+02 1.796087349097698072e-01
2.250000000000000000e+02 1.818109672267172461e-01
2.260000000000000000e+02 9.893176755495618202e-02
2.270000000000000000e+02 1.525004679527071083e-01
2.280000000000000000e+02 1.468997772246420641e-01
2.290000000000000000e+02 8.556219880547515089e-02
2.300000000000000000e+02 7.723791668823826173e-02
2.310000000000000000e+02 1.379867934038587762e-01
2.320000000000000000e+02 1.646874050186644400e-01
2.330000000000000000e+02 8.730428640323603662e-02
2.340000000000000000e+02 1.539790464345557885e-01
2.350000000000000000e+02 2.104238652011609922e-01
2.360000000000000000e+02 6.479494721821218994e-02
2.370000000000000000e+02 1.150652426882389778e-01
2.380000000000000000e+02 8.610483230989410264e-02
2.390000000000000000e+02 2.373583708774086587e-01
2.400000000000000000e+02 4.260965604646313465e-01
2.410000000000000000e+02 2.163685654428542382e-01
2.420000000000000000e+02 6.824100553826990545e-01
2.430000000000000000e+02 3.609849786351476686e-01
2.440000000000000000e+02 1.053933543401775613e-01
2.450000000000000000e+02 1.196561066998556855e-01
2.460000000000000000e+02 2.258128438083384371e-01
2.470000000000000000e+02 3.536073385189780205e-01
2.480000000000000000e+02 1.040578123650643672e-01
2.490000000000000000e+02 1.556146851275670706e-01
2.500000000000000000e+02 4.159779234598629527e-01
2.510000000000000000e+02 3.829263186060993807e-01
2.520000000000000000e+02 2.426177033810422157e-01
2.530000000000000000e+02 9.305103143269034816e-02
2.540000000000000000e+02 1.103552657125072278e-01
2.550000000000000000e+02 3.003797915370245430e-01
2.560000000000000000e+02 2.710462009956438045e-01
2.570000000000000000e+02 3.166690991495574314e-01
2.580000000000000000e+02 3.895810423060998007e-01
2.590000000000000000e+02 1.491850452188315801e-01
2.600000000000000000e+02 3.694774723086546309e-01
2.610000000000000000e+02 2.221865752799723759e-01
2.620000000000000000e+02 1.745851632441366985e-01
2.630000000000000000e+02 4.797036784899466055e-01
2.640000000000000000e+02 6.332000371292276775e-01
2.650000000000000000e+02 3.208272949595559198e-01
2.660000000000000000e+02 2.212523717071121498e-01
2.670000000000000000e+02 2.637359757311761310e-01
2.680000000000000000e+02 2.130659186890678514e-01
2.690000000000000000e+02 4.519478624766640196e-01
2.700000000000000000e+02 1.344854710640904782e-01
2.710000000000000000e+02 7.034312694461672399e-02
2.720000000000000000e+02 1.175777078583278290e-01
2.730000000000000000e+02 1.359234123625804314e-01
2.740000000000000000e+02 1.465655401369009847e-01
2.750000000000000000e+02 1.043682886255968278e-01
2.760000000000000000e+02 1.718216280854572842e-01
2.770000000000000000e+02 1.220939249118466047e-01
2.780000000000000000e+02 2.289875283136296735e-01
2.790000000000000000e+02 3.765417673164666024e-01
2.800000000000000000e+02 4.351578921385608756e-01
2.810000000000000000e+02 5.531779890064389971e-01
2.820000000000000000e+02 7.384166880962241830e-01
2.830000000000000000e+02 1.177030062227820972e-01
2.840000000000000000e+02 3.170574055175083839e-01
2.850000000000000000e+02 6.259501941103271516e-01
2.860000000000000000e+02 4.382604092511946936e-01
2.870000000000000000e+02 2.657600777846952367e-01
2.880000000000000000e+02 5.336627128535878506e-02
2.890000000000000000e+02 1.060573352001659697e-01
2.900000000000000000e+02 1.418906948765663589e-02
2.910000000000000000e+02 9.973005102675670808e-02
2.920000000000000000e+02 2.269494051026751946e-01
2.930000000000000000e+02 1.033322675793409418e-01
2.940000000000000000e+02 2.769717622899774967e-01
2.950000000000000000e+02 2.175218247251627379e-01
2.960000000000000000e+02 3.845681281891740189e-01
2.970000000000000000e+02 4.991085438705664123e-01
2.980000000000000000e+02 3.831144743829026922e-01
2.990000000000000000e+02 1.411915229205510935e-01
3.000000000000000000e+02 9.235204496722329570e-02
3.010000000000000000e+02 4.305830298693142377e-01
3.020000000000000000e+02 4.633769466915564350e-01
3.030000000000000000e+02 3.344589850653407193e-01
3.040000000000000000e+02 3.247631431238304778e-01
3.050000000000000000e+02 4.546201140605566349e-01
3.060000000000000000e+02 3.575139695084009750e-01
3.070000000000000000e+02 1.535592401991295319e-01
3.080000000000000000e+02 2.685417053089992900e-01
3.090000000000000000e+02 4.060822020327721771e-01
3.100000000000000000e+02 2.412451288114497161e-01
3.110000000000000000e+02 2.182067685607634311e-01
3.120000000000000000e+02 3.142270896079671916e-01
3.130000000000000000e+02 2.853068591578493129e-01
3.140000000000000000e+02 2.970453996267067298e-01
3.150000000000000000e+02 6.222939533291921288e-01
3.160000000000000000e+02 7.418570628500317232e-01
3.170000000000000000e+02 3.562297000622346999e-01
3.180000000000000000e+02 2.562189313420364378e-01
3.190000000000000000e+02 5.439495357809606135e-01
3.200000000000000000e+02 4.696682520224007007e-01
3.210000000000000000e+02 7.375456855424142866e-01
3.220000000000000000e+02 8.488805851483094411e-01
3.230000000000000000e+02 9.685611962248494855e-01
3.240000000000000000e+02 1.510784152457991025e+00
3.250000000000000000e+02 2.869914873055361859e+00
3.260000000000000000e+02 5.654523275254121906e+00
3.270000000000000000e+02 8.447188625596357525e+00
3.280000000000000000e+02 9.756461389545735940e+00
3.290000000000000000e+02 9.230418854387050231e+00
3.300000000000000000e+02 9.182792945861857348e+00
3.310000000000000000e+02 1.018133572583990620e+01
3.320000000000000000e+02 1.117771092304503000e+01
3.330000000000000000e+02 1.200045504044806144e+01
3.340000000000000000e+02 1.308181211530486010e+01
3.350000000000000000e+02 1.413326560464631143e+01
3.360000000000000000e+02 1.563643017423770232e+01
3.370000000000000000e+02 1.721020541683949290e+01
3.380000000000000000e+02 1.912855282513997679e+01
3.390000000000000000e+02 2.286383847541993575e+01
3.400000000000000000e+02 3.030604800082947037e+01
3.410000000000000000e+02 3.954647832192485879e+01
3.420000000000000000e+02 4.824297647168628345e+01
3.430000000000000000e+02 5.854548407714651148e+01
3.440000000000000000e+02 7.494215871603400103e+01
3.450000000000000000e+02 6.356500868906870494e+01
3.460000000000000000e+02 3.910949998340547040e+01
3.470000000000000000e+02 1.837989843186047167e+01
3.480000000000000000e+02 9.633055681808720294e+00
3.490000000000000000e+02 6.487592790707269685e+00
3.500000000000000000e+02 4.935695187305515041e+00
3.510000000000000000e+02 4.333703641568136256e+00
3.520000000000000000e+02 3.676029520224046721e+00
3.530000000000000000e+02 2.313982228168463884e+00
3.540000000000000000e+02 1.376294841941488656e+00
3.550000000000000000e+02 1.193691112009956035e+00
3.560000000000000000e+02 1.079115492221534689e+00
3.570000000000000000e+02 9.464135310101650100e-01
3.580000000000000000e+02 1.060505552997302425e+00
3.590000000000000000e+02 1.295767609624558281e+00
3.600000000000000000e+02 1.291878627540437474e+00
3.610000000000000000e+02 1.962011822028630448e+00
3.620000000000000000e+02 3.623941154532252185e+00
3.630000000000000000e+02 5.826659968477818197e+00
3.640000000000000000e+02 7.511990244555087237e+00
3.650000000000000000e+02 7.932046664592408369e+00
3.660000000000000000e+02 8.306733621941118528e+00
3.670000000000000000e+02 9.110930492014121640e+00
3.680000000000000000e+02 9.812261397013077868e+00
3.690000000000000000e+02 1.029281275819161223e+01
3.700000000000000000e+02 1.118652696328559593e+01
3.710000000000000000e+02 1.222593277743209228e+01
3.720000000000000000e+02 1.336861244555069739e+01
3.730000000000000000e+02 1.491472633685954285e+01
3.740000000000000000e+02 1.679427323584311438e+01
3.750000000000000000e+02 2.103844263223395217e+01
3.760000000000000000e+02 2.769509937357387486e+01
3.770000000000000000e+02 3.551271159925315857e+01
3.780000000000000000e+02 4.278612371084841470e+01
3.790000000000000000e+02 5.041538655880522413e+01
3.800000000000000000e+02 6.364785451980906572e+01
3.810000000000000000e+02 6.299225660858724751e+01
3.820000000000000000e+02 4.179691763949369943e+01
3.830000000000000000e+02 2.086988560049776709e+01
3.840000000000000000e+02 1.036172061605458872e+01
3.850000000000000000e+02 5.901512664177517742e+00
3.860000000000000000e+02 3.854098553712141939e+00
3.870000000000000000e+02 2.647227573532480172e+00
3.880000000000000000e+02 2.152580934038577087e+00
3.890000000000000000e+02 2.109882905433429379e+00
3.900000000000000000e+02 1.686918703381053097e+00
3.910000000000000000e+02 1.209100838830122759e+00
3.920000000000000000e+02 9.947916486934923475e-01
3.930000000000000000e+02 6.681794113254535539e-01
3.940000000000000000e+02 5.382532559634939373e-01
3.950000000000000000e+02 4.558860304852757617e-01
3.960000000000000000e+02 4.812350891931135299e-01
3.970000000000000000e+02 5.643965836963283911e-01
3.980000000000000000e+02 3.696665469819500616e-01
3.990000000000000000e+02 1.014250790292454962e-01
4.000000000000000000e+02 5.826707897304082839e-02
4.010000000000000000e+02 8.705593759862917391e-02
4.020000000000000000e+02 8.107605799626929621e-02
4.030000000000000000e+02 2.177037189379794069e-01
4.040000000000000000e+02 7.606318643716206140e-02
4.050000000000000000e+02 2.935636979879749364e-01
4.060000000000000000e+02 3.370346023646521028e-01
4.070000000000000000e+02 1.562917615097481894e-01
4.080000000000000000e+02 1.516091246629412519e-02
4.090000000000000000e+02 1.013764808977346693e-01
4.100000000000000000e+02 1.600508742465872603e-02
4.110000000000000000e+02 1.021174604349719267e-01
4.120000000000000000e+02 1.368070192906020895e-02
4.130000000000000000e+02 9.455684015225096495e-02
4.140000000000000000e+02 5.242841406347216182e-01
4.150000000000000000e+02 6.612293497199759340e-01
4.160000000000000000e+02 6.756876533914140115e-01
4.170000000000000000e+02 8.356515054967855738e-01
4.180000000000000000e+02 9.784263225471893088e-01
4.190000000000000000e+02 1.043519933623730633e+00
4.200000000000000000e+02 1.209250242688241661e+00
4.210000000000000000e+02 1.185739671644884918e+00
4.220000000000000000e+02 1.010308348060567685e+00
4.230000000000000000e+02 1.187993259074886065e+00
4.240000000000000000e+02 1.490821140634728925e+00
4.250000000000000000e+02 2.164268445550699749e+00
4.260000000000000000e+02 2.800842279195178808e+00
4.270000000000000000e+02 3.230681514309422742e+00
4.280000000000000000e+02 3.710573329392233610e+00
4.290000000000000000e+02 4.551253868699425276e+00
4.300000000000000000e+02 5.236699863542091826e+00
4.310000000000000000e+02 5.529074423771001001e+00
4.320000000000000000e+02 5.238013965774741543e+00
4.330000000000000000e+02 4.164148825383657382e+00
4.340000000000000000e+02 2.446398125700053772e+00
4.350000000000000000e+02 1.650589125285210734e+00
4.360000000000000000e+02 1.317882900456236683e+00
4.370000000000000000e+02 8.404183370669907616e-01
4.380000000000000000e+02 3.212181611698784467e-01
4.390000000000000000e+02 4.720720572495376022e-01
4.400000000000000000e+02 5.748860576643852749e-01
4.410000000000000000e+02 5.417584082140619595e-01
4.420000000000000000e+02 4.600336840904392655e-01
4.430000000000000000e+02 4.513143627877986286e-01
4.440000000000000000e+02 6.255207848993989961e-01
4.450000000000000000e+02 2.609878570835986178e-01
4.460000000000000000e+02 9.784221676539789359e-02
4.470000000000000000e+02 5.328734162383413908e-02
4.480000000000000000e+02 2.633062744243925835e-01
4.490000000000000000e+02 3.321568087533707803e-01
4.500000000000000000e+02 1.101541602733912412e-01
4.510000000000000000e+02 8.083475874880793888e-02
4.520000000000000000e+02 1.686519819539514797e-01
4.530000000000000000e+02 1.611484379925343380e-01
4.540000000000000000e+02 1.019479833032557736e-01
4.550000000000000000e+02 5.402587869591353453e-02
4.560000000000000000e+02 6.434167637038618048e-02
4.570000000000000000e+02 3.384863406075650644e-02
4.580000000000000000e+02 7.739153375970289628e-02
4.590000000000000000e+02 4.264396379095805045e-01
4.600000000000000000e+02 2.436312146857567418e-01
4.610000000000000000e+02 3.418892663347933292e-01
4.620000000000000000e+02 5.318154773952713521e-01
4.630000000000000000e+02 3.683545870151478940e-01
4.640000000000000000e+02 6.263405816407510707e-02
4.650000000000000000e+02 2.635469941717120124e-01
4.660000000000000000e+02 3.814885239576851217e-01
4.670000000000000000e+02 4.179346106616874668e-01
4.680000000000000000e+02 4.664820999792573253e-01
4.690000000000000000e+02 3.884993042937147645e-01
4.700000000000000000e+02 1.306895701045432956e-01
4.710000000000000000e+02 1.456757573117630766e-01
4.720000000000000000e+02 2.712406969508411869e-01
4.730000000000000000e+02 4.764151236258052369e-01
4.740000000000000000e+02 6.175498386226888625e-01
4.750000000000000000e+02 1.774266428126869966e-01
4.760000000000000000e+02 1.500447263795911257e-01
4.770000000000000000e+02 1.409829278158079013e-01
4.780000000000000000e+02 7.499239461999492040e-02
4.790000000000000000e+02 1.818042308170960131e-01
4.800000000000000000e+02 4.682129527069116004e-01
4.810000000000000000e+02 8.888232254719349856e-02
4.820000000000000000e+02 2.554140601410110345e-01
4.830000000000000000e+02 3.931998637212215653e-01
4.840000000000000000e+02 1.765275214685760874e-01
4.850000000000000000e+02 2.350715514309399401e-01
4.860000000000000000e+02 6.873283532462151069e-01
4.870000000000000000e+02 5.382052277535795959e-01
4.880000000000000000e+02 2.797132965574440910e-01
4.890000000000000000e+02 1.531601835718713889e-01
4.900000000000000000e+02 8.809154998547584492e-03
4.910000000000000000e+02 4.430604654230825556e-02
4.920000000000000000e+02 3.772353264882886692e-01
4.930000000000000000e+02 6.024635724953332216e-01
4.940000000000000000e+02 5.334622202862537854e-01
4.950000000000000000e+02 2.482248799004414808e-01
4.960000000000000000e+02 2.444601647521223858e-02
4.970000000000000000e+02 1.561378433934827725e-01
4.980000000000000000e+02 3.575605532047269053e-01
4.990000000000000000e+02 4.240263204729306512e-01
5.000000000000000000e+02 3.588135476042325633e-01
5.010000000000000000e+02 2.345003378967021324e-01
5.020000000000000000e+02 5.022402190416886958e-01
5.030000000000000000e+02 2.465079943995009126e-01
5.040000000000000000e+02 4.413091533312582526e-02
5.050000000000000000e+02 1.593636706575492917e-02
5.060000000000000000e+02 2.026196535988393777e-01
5.070000000000000000e+02 2.265815090230232920e-01
5.080000000000000000e+02 4.727108793923773256e-02
5.090000000000000000e+02 6.452281442708922288e-02
5.100000000000000000e+02 1.560743895457389063e-01
5.110000000000000000e+02 2.317092907507257160e-01
5.120000000000000000e+02 2.797013515868043698e-01
5.130000000000000000e+02 4.603033632026534705e-01
5.140000000000000000e+02 6.426836869943972630e-01
5.150000000000000000e+02 3.584116119867338246e-01
5.160000000000000000e+02 1.400233764779056922e-01
5.170000000000000000e+02 6.500216695706193537e-01
5.180000000000000000e+02 5.309783098299478699e-01
5.190000000000000000e+02 2.721678471271563038e-01
5.200000000000000000e+02 1.869414001244542878e-01
5.210000000000000000e+02 3.235144996888633107e-01
5.220000000000000000e+02 4.886770672059725928e-01
5.230000000000000000e+02 2.516684965774736993e-01
5.240000000000000000e+02 5.670451603401746032e-01
5.250000000000000000e+02 4.922741300559945188e-01
5.260000000000000000e+02 1.766705169052006363e-01
5.270000000000000000e+02 1.287674239672236265e-01
5.280000000000000000e+02 3.828241622070053252e-01
5.290000000000000000e+02 4.726515015556923549e-01
5.300000000000000000e+02 5.100665644057242876e-01
5.310000000000000000e+02 4.692844905621266216e-01
5.320000000000000000e+02 4.188146357602160474e-01
5.330000000000000000e+02 3.499571561916733353e-01
5.340000000000000000e+02 8.733015846110815661e-02
5.350000000000000000e+02 1.299341389464903351e-01
5.360000000000000000e+02 1.541288799004356669e-01
5.370000000000000000e+02 2.465217693424591461e-01
5.380000000000000000e+02 4.902690269597673178e-01
5.390000000000000000e+02 3.513375289359021436e-01
5.400000000000000000e+02 2.451135507156189386e-01
5.410000000000000000e+02 3.983585831605054306e-01
5.420000000000000000e+02 3.690074677452890861e-01
5.430000000000000000e+02 3.079744026135707857e-01
5.440000000000000000e+02 4.373930800497712879e-01
5.450000000000000000e+02 2.367891485169156818e-01
5.460000000000000000e+02 8.940398515846967320e-02
5.470000000000000000e+02 6.418248775585025379e-02
5.480000000000000000e+02 3.653555942750418839e-01
5.490000000000000000e+02 3.323517179008725342e-01
5.500000000000000000e+02 1.182108729676430298e-01
5.510000000000000000e+02 3.798350721841909916e-01
5.520000000000000000e+02 4.591835532047306989e-01
5.530000000000000000e+02 2.608266565027964612e-01
5.540000000000000000e+02 2.551925198091716251e-01
5.550000000000000000e+02 4.881732101223825726e-01
5.560000000000000000e+02 4.406924559220048998e-01
5.570000000000000000e+02 3.799121126322319020e-01
5.580000000000000000e+02 2.510075581829442903e-01
5.590000000000000000e+02 1.009873340145276965e-01
5.600000000000000000e+02 5.210648115370775102e-02
5.610000000000000000e+02 1.704144044803921343e-01
5.620000000000000000e+02 3.281273932794005477e-01
5.630000000000000000e+02 3.053613903754401337e-01
5.640000000000000000e+02 5.278674741754777466e-01
5.650000000000000000e+02 6.819319253266979963e-01
5.660000000000000000e+02 5.150932794026156225e-01
5.670000000000000000e+02 3.624134828873656899e-01
5.680000000000000000e+02 5.481996971582472900e-02
5.690000000000000000e+02 1.867967832080504043e-01
5.700000000000000000e+02 2.821799661895853517e-01
5.710000000000000000e+02 1.672039390167978645e-01
5.720000000000000000e+02 1.201895023853976341e-01
5.730000000000000000e+02 2.658791149139180798e-01
5.740000000000000000e+02 2.209928691142880874e-01
5.750000000000000000e+02 9.479842015760912843e-02
5.760000000000000000e+02 2.674515059116173710e-01
5.770000000000000000e+02 4.654308973241885194e-01
5.780000000000000000e+02 1.210390190792194065e-01
5.790000000000000000e+02 3.005349661895843072e-01
5.800000000000000000e+02 2.827631344119498902e-01
5.810000000000000000e+02 2.841880194939852555e-01
5.820000000000000000e+02 2.508513443269028143e-01
5.830000000000000000e+02 1.506946465463596951e-01
5.840000000000000000e+02 2.108176984653675201e-01
5.850000000000000000e+02 5.518340723895040489e-02
5.860000000000000000e+02 1.559456434009582615e-01
5.870000000000000000e+02 5.745218676042270628e-02
5.880000000000000000e+02 9.011033654015748739e-02
5.890000000000000000e+02 5.283622781580529226e-01
5.900000000000000000e+02 2.277647834474088584e-01
5.910000000000000000e+02 1.043534978220291565e-01
5.920000000000000000e+02 2.426558757519224063e-01
5.930000000000000000e+02 2.768793457788883416e-01
5.940000000000000000e+02 1.440771953951483775e-01
5.950000000000000000e+02 1.463308012860415064e-01
5.960000000000000000e+02 3.043059510474999119e-01
5.970000000000000000e+02 4.421122696535983443e-01
5.980000000000000000e+02 3.840170528935913929e-01
5.990000000000000000e+02 3.187205177349098917e-01
6.000000000000000000e+02 2.751451601327494778e-01
6.010000000000000000e+02 9.172387239195210762e-02
6.020000000000000000e+02 3.959250859074871925e-02
6.030000000000000000e+02 8.831095425264623433e-02
6.040000000000000000e+02 1.040097633956854201e-01
6.050000000000000000e+02 9.309354199917234396e-02
6.060000000000000000e+02 1.799689479361130384e-01
6.070000000000000000e+02 2.227380041476582084e-01
6.080000000000000000e+02 4.080123883011840258e-01
6.090000000000000000e+02 1.347696544285399978e-01
6.100000000000000000e+02 5.519222799689106618e-02
6.110000000000000000e+02 1.576826500725990454e-01
6.120000000000000000e+02 1.776463546981953967e-01
6.130000000000000000e+02 4.030265093322296654e-01
6.140000000000000000e+02 1.628827722464213090e-01
6.150000000000000000e+02 2.304488185023848279e-01
6.160000000000000000e+02 2.904416405310092930e-01
6.170000000000000000e+02 2.070528021157434506e-01
6.180000000000000000e+02 1.072912689564415045e-01
6.190000000000000000e+02 3.896577328272209095e-02
6.200000000000000000e+02 2.251071414644260915e-01
6.210000000000000000e+02 1.452215848811477250e-01
6.220000000000000000e+02 3.984913008462976497e-02
6.230000000000000000e+02 1.675314047317968125e-01
6.240000000000000000e+02 3.386162109520838293e-01
6.250000000000000000e+02 1.061721248998134109e-01
6.260000000000000000e+02 1.112190790292486020e-02
6.270000000000000000e+02 1.857044046038960339e-01
6.280000000000000000e+02 1.493961918607326633e-01
6.290000000000000000e+02 3.543685563161234897e-02
6.300000000000000000e+02 2.326248291165477489e-01
6.310000000000000000e+02 2.327305102675800985e-01
6.320000000000000000e+02 1.311310269653608307e-01
6.330000000000000000e+02 2.567744456656949059e-01
6.340000000000000000e+02 4.341406098319838813e-01
6.350000000000000000e+02 3.318992177971460400e-01
6.360000000000000000e+02 4.783542727291698049e-02
6.370000000000000000e+02 4.004607284795632105e-01
6.380000000000000000e+02 4.601606695706304540e-01
6.390000000000000000e+02 1.582083571132366084e-01
6.400000000000000000e+02 3.074966502613807502e-03
6.410000000000000000e+02 1.126292731798372165e-01
6.420000000000000000e+02 1.618072957892552621e-01
6.430000000000000000e+02 2.636827241236257002e-01
6.440000000000000000e+02 3.073772744243930544e-01
6.450000000000000000e+02 4.925998593652807789e-01
6.460000000000000000e+02 4.378930889856800235e-01
6.470000000000000000e+02 2.633643003526273119e-01
6.480000000000000000e+02 4.297174891101421812e-01
6.490000000000000000e+02 3.041948998133177651e-01
6.500000000000000000e+02 5.526725123418504415e-01
6.510000000000000000e+02 3.767672014105080125e-01
6.520000000000000000e+02 2.475072719352793826e-01
6.530000000000000000e+02 3.497250435594286833e-01
6.540000000000000000e+02 2.186605861854320210e-01
6.550000000000000000e+02 4.076665243725436372e-01
6.560000000000000000e+02 7.422403665574608955e-02
6.570000000000000000e+02 9.596238913088334099e-02
6.580000000000000000e+02 3.797995488487843629e-01
6.590000000000000000e+02 5.053735599336375284e-01
6.600000000000000000e+02 4.042040775772645644e-01
6.610000000000000000e+02 2.958835673096856245e-01
6.620000000000000000e+02 2.256134666113653875e-01
6.630000000000000000e+02 3.923567902924800510e-01
6.640000000000000000e+02 6.027622065961474318e-01
6.650000000000000000e+02 5.090468921609422326e-01
6.660000000000000000e+02 1.804476511097384828e-01
6.670000000000000000e+02 4.059627822028739619e-01
6.680000000000000000e+02 2.670547946484178037e-01
6.690000000000000000e+02 1.923713905828657311e-01
6.700000000000000000e+02 2.501028514830902494e-01
6.710000000000000000e+02 4.273332065961381598e-01
6.720000000000000000e+02 6.334938500311128040e-01
6.730000000000000000e+02 5.634285254096710327e-01
6.740000000000000000e+02 1.569225913401759431e-01
6.750000000000000000e+02 4.263960369218040558e-01
6.760000000000000000e+02 5.155265214685732511e-01
6.770000000000000000e+02 3.636790224019934570e-01
6.780000000000000000e+02 3.969750956233125128e-01
6.790000000000000000e+02 1.210460883634056489e-01
6.800000000000000000e+02 3.305542159303194172e-01
6.810000000000000000e+02 3.805843733665168482e-01
6.820000000000000000e+02 2.445497781003677651e-01
6.830000000000000000e+02 2.752898029454342588e-01
6.840000000000000000e+02 4.686919006430248502e-01
6.850000000000000000e+02 3.181032046868459418e-01
6.860000000000000000e+02 2.082504947106424142e-01
6.870000000000000000e+02 1.194345534121551422e-01
6.880000000000000000e+02 4.545773467440838989e-01
6.890000000000000000e+02 4.924654152665417506e-01
6.900000000000000000e+02 5.642571567828258416e-02
6.910000000000000000e+02 4.638334930671811351e-02
6.920000000000000000e+02 1.617109283420503640e-01
6.930000000000000000e+02 3.287615169052088282e-01
6.940000000000000000e+02 7.547693902943056199e-02
6.950000000000000000e+02 6.613872495332391577e-02
6.960000000000000000e+02 2.815175814146365918e-02
6.970000000000000000e+02 6.309924537502968611e-02
6.980000000000000000e+02 1.008530416925917522e-01
6.990000000000000000e+02 1.018135145949013443e-01
7.000000000000000000e+02 1.407306104542652980e-01
7.010000000000000000e+02 1.133477771049467564e-01
7.020000000000000000e+02 2.016699983405878249e-01
7.030000000000000000e+02 7.844302515909495899e-02
7.040000000000000000e+02 9.418402522028626600e-02
7.050000000000000000e+02 1.536649529143323811e-01
7.060000000000000000e+02 4.514488556316175738e-01
7.070000000000000000e+02 2.801655254096585557e-01
7.080000000000000000e+02 7.427861685649238266e-02
7.090000000000000000e+02 6.549231764841810521e-02
7.100000000000000000e+02 2.804506108691119937e-01
7.110000000000000000e+02 5.716120068201628601e-02
7.120000000000000000e+02 2.702440080896075236e-01
7.130000000000000000e+02 3.004174715885526981e-01
7.140000000000000000e+02 2.505781451980921282e-01
7.150000000000000000e+02 3.183016544285417471e-01
7.160000000000000000e+02 2.665139375777685338e-01
7.170000000000000000e+02 1.216898251400124337e-01
7.180000000000000000e+02 2.679154853764758593e-01
7.190000000000000000e+02 4.150766474491913716e-01
7.200000000000000000e+02 3.830966674963704466e-01
7.210000000000000000e+02 2.408520230242707783e-01
7.220000000000000000e+02 1.474394467952707677e-01
7.230000000000000000e+02 1.714063401783859075e-01
7.240000000000000000e+02 1.218706459975114759e-01
7.250000000000000000e+02 2.159586996473759624e-01
7.260000000000000000e+02 1.138027645090259610e-01
7.270000000000000000e+02 2.047634014197349805e-02
7.280000000000000000e+02 1.035593262808542359e-01
7.290000000000000000e+02 1.538178894420235421e-01
7.300000000000000000e+02 2.225121963915381862e-01
7.310000000000000000e+02 3.071201960174232415e-01
7.320000000000000000e+02 1.389693420452242090e-01
7.330000000000000000e+02 2.958552542430504043e-02
7.340000000000000000e+02 9.273600248910789101e-02
7.350000000000000000e+02 3.520043851897986520e-01
7.360000000000000000e+02 1.745627243310516330e-01
7.370000000000000000e+02 2.208274019912880581e-01
7.380000000000000000e+02 9.559804622090851967e-02
7.390000000000000000e+02 2.401635054967807548e-01
7.400000000000000000e+02 3.249915426260052698e-01
7.410000000000000000e+02 1.806230250985293995e-01
7.420000000000000000e+02 3.187469732420639690e-01
7.430000000000000000e+02 3.988284675378539479e-01
7.440000000000000000e+02 4.204715158680780718e-01
7.450000000000000000e+02 1.918298046048607930e-01
7.460000000000000000e+02 3.665762315681515837e-02
7.470000000000000000e+02 2.063301190068332347e-01
7.480000000000000000e+02 4.869793779298853265e-01
7.490000000000000000e+02 4.175096789048011181e-01
7.500000000000000000e+02 7.843464946578475316e-02
7.510000000000000000e+02 2.157119076954980563e-01
7.520000000000000000e+02 2.499743171541183306e-01
7.530000000000000000e+02 7.259576073973435240e-02
7.540000000000000000e+02 1.169983995021782325e-01
7.550000000000000000e+02 9.204670288467281525e-02
7.560000000000000000e+02 4.087657892990378405e-01
7.570000000000000000e+02 2.380126504874606475e-01
7.580000000000000000e+02 2.589402072184252557e-01
7.590000000000000000e+02 1.927462364164347353e-01
7.600000000000000000e+02 1.597749404252171157e-01
7.610000000000000000e+02 3.252373885086056737e-01
7.620000000000000000e+02 2.109991947728606654e-01
7.630000000000000000e+02 4.882448581207216032e-01
7.640000000000000000e+02 3.599511968471361123e-01
7.650000000000000000e+02 7.098686890686756179e-02
7.660000000000000000e+02 1.139332065961379259e-01
7.670000000000000000e+02 3.166915681393914772e-01
7.680000000000000000e+02 3.112884978220305521e-01
7.690000000000000000e+02 4.985692487035889298e-01
7.700000000000000000e+02 3.540832126114895617e-01
7.710000000000000000e+02 1.574661188550044166e-01
7.720000000000000000e+02 3.271754044804089379e-01
7.730000000000000000e+02 4.404964131922803339e-01
7.740000000000000000e+02 4.165945005185588967e-01
7.750000000000000000e+02 5.921721893798003178e-01
7.760000000000000000e+02 2.074382669017049707e-01
7.770000000000000000e+02 4.525657635345325391e-01
7.780000000000000000e+02 3.657083439120585866e-01
7.790000000000000000e+02 3.977331945250845435e-01
7.800000000000000000e+02 4.557441422941334030e-01
7.810000000000000000e+02 2.252329738643484847e-01
7.820000000000000000e+02 1.146022685891735504e-01
7.830000000000000000e+02 4.159632489110151599e-01
7.840000000000000000e+02 2.432922231902089061e-01
7.850000000000000000e+02 5.046931957694011928e-01
7.860000000000000000e+02 4.488411767268094543e-01
7.870000000000000000e+02 2.321848151835724516e-01
7.880000000000000000e+02 4.342714352965658664e-01
7.890000000000000000e+02 5.089235903339291989e-01
7.900000000000000000e+02 5.878486092097212623e-01
7.910000000000000000e+02 7.246816272558028738e-01
7.920000000000000000e+02 5.010966531839805560e-01
7.930000000000000000e+02 4.615879079029447940e-01
7.940000000000000000e+02 3.737415345363883645e-01
7.950000000000000000e+02 6.514303565650203520e-01
7.960000000000000000e+02 5.644753976353479308e-01
7.970000000000000000e+02 8.354652036921796920e-01
7.980000000000000000e+02 8.044689647376054298e-01
7.990000000000000000e+02 4.840404604853757453e-01
8.000000000000000000e+02 6.859799172370811826e-01
8.010000000000000000e+02 8.675551400124471568e-01
8.020000000000000000e+02 8.058837680979216156e-01
8.030000000000000000e+02 4.738972082555785725e-01
8.040000000000000000e+02 5.244353148724297808e-01
8.050000000000000000e+02 5.917488732890886505e-01
8.060000000000000000e+02 7.791717485998717052e-01
8.070000000000000000e+02 6.569410885708374392e-01
8.080000000000000000e+02 5.059012326835490292e-01
8.090000000000000000e+02 6.466948126944679354e-01
8.100000000000000000e+02 7.056110483302124869e-01
8.110000000000000000e+02 4.815494701368709385e-01
8.120000000000000000e+02 6.943216830533058825e-01
8.130000000000000000e+02 7.466000423148733134e-01
8.140000000000000000e+02 8.648340593114964836e-01
8.150000000000000000e+02 9.359857595934440999e-01
8.160000000000000000e+02 6.700982151006018572e-01
8.170000000000000000e+02 7.032652271312989090e-01
8.180000000000000000e+02 6.107739477286864282e-01
8.190000000000000000e+02 6.090033397635344903e-01
8.200000000000000000e+02 5.555503797967211721e-01
8.210000000000000000e+02 5.847087875959361414e-01
8.220000000000000000e+02 6.677363416303671029e-01
8.230000000000000000e+02 6.120248879900422878e-01
8.240000000000000000e+02 5.380641286040238613e-01
8.250000000000000000e+02 5.660732621862680780e-01
8.260000000000000000e+02 7.887897295166945710e-01
8.270000000000000000e+02 5.841361001866823832e-01
8.280000000000000000e+02 3.718183302219461583e-01
8.290000000000000000e+02 4.332720690728072421e-01
8.300000000000000000e+02 5.210610526861637615e-01
8.310000000000000000e+02 4.519529286603050644e-01
8.320000000000000000e+02 7.681757429993789632e-01
8.330000000000000000e+02 1.026513712300352044e+00
8.340000000000000000e+02 9.276269597677326839e-01
8.350000000000000000e+02 8.120425629537439960e-01
8.360000000000000000e+02 6.979045133789699706e-01
8.370000000000000000e+02 6.087782214848601603e-01
8.380000000000000000e+02 8.576742142708977390e-01
8.390000000000000000e+02 7.767672937149981971e-01
8.400000000000000000e+02 8.586004881791784449e-01
8.410000000000000000e+02 6.022096527691380707e-01
8.420000000000000000e+02 6.469173773076064560e-01
8.430000000000000000e+02 8.505339041692594471e-01
8.440000000000000000e+02 7.399519637004770001e-01
8.450000000000000000e+02 5.426085600497819739e-01
8.460000000000000000e+02 8.219240908525200506e-01
8.470000000000000000e+02 7.322663820784084399e-01
8.480000000000000000e+02 7.988472451773512839e-01
8.490000000000000000e+02 6.607617357394762747e-01
8.500000000000000000e+02 5.752693503422483534e-01
8.510000000000000000e+02 6.902284472101222201e-01
8.520000000000000000e+02 6.896766832607335029e-01
8.530000000000000000e+02 7.637583800041483073e-01
8.540000000000000000e+02 6.050702837585617555e-01
8.550000000000000000e+02 8.247169228375794692e-01
8.560000000000000000e+02 1.098576829288522294e+00
8.570000000000000000e+02 1.055712684363341536e+00
8.580000000000000000e+02 8.505465764364247283e-01
8.590000000000000000e+02 7.826747168637210317e-01
8.600000000000000000e+02 8.140263425964330279e-01
8.610000000000000000e+02 8.134587288944220562e-01
8.620000000000000000e+02 1.030823759386022109e+00
8.630000000000000000e+02 9.577534431771123069e-01
8.640000000000000000e+02 7.818873086496616054e-01
8.650000000000000000e+02 8.047396382493318123e-01
8.660000000000000000e+02 8.578389381999200758e-01
8.670000000000000000e+02 7.205683544907708349e-01
8.680000000000000000e+02 8.055531561916582373e-01
8.690000000000000000e+02 6.842636107424351355e-01
8.700000000000000000e+02 5.743412833437051557e-01
8.710000000000000000e+02 6.027316212404043583e-01
8.720000000000000000e+02 6.343893030491600804e-01
8.730000000000000000e+02 7.096366297448634120e-01
8.740000000000000000e+02 7.958532422733906042e-01
8.750000000000000000e+02 5.322991454055159277e-01
8.760000000000000000e+02 4.826508093756484152e-01
8.770000000000000000e+02 5.726164430616058620e-01
8.780000000000000000e+02 4.305675731176030752e-01
8.790000000000000000e+02 5.947467795063406948e-01
8.800000000000000000e+02 8.051799784277117178e-01
8.810000000000000000e+02 6.407227403028501467e-01
8.820000000000000000e+02 4.778784909769684397e-01
8.830000000000000000e+02 3.717136548433895293e-01
8.840000000000000000e+02 4.196014094586182908e-01
8.850000000000000000e+02 3.788168780336043096e-01
8.860000000000000000e+02 3.923079162173359058e-01
8.870000000000000000e+02 3.067801232109562681e-01
8.880000000000000000e+02 1.910613600912661747e-01
8.890000000000000000e+02 2.568007320613849842e-01
8.900000000000000000e+02 2.720547813731591380e-01
8.910000000000000000e+02 2.681479172370877517e-01
8.920000000000000000e+02 3.406507758191631430e-01
8.930000000000000000e+02 1.915395828666189293e-01
8.940000000000000000e+02 2.070121956025758880e-01
8.950000000000000000e+02 3.001072160929077470e-01
8.960000000000000000e+02 3.100580715619190020e-01
8.970000000000000000e+02 3.328846552582304108e-01
8.980000000000000000e+02 2.278089172371088392e-02
8.990000000000000000e+02 4.576823465193738394e-02
9.000000000000000000e+02 6.450967431487263093e-02
9.010000000000000000e+02 1.085442825140002093e-01
9.020000000000000000e+02 6.047725496929762246e-02
9.030000000000000000e+02 1.136193813192342417e-01
9.040000000000000000e+02 3.039390709388065798e-02
9.050000000000000000e+02 6.245894896390859902e-02
9.060000000000000000e+02 2.647241468574972889e-01
9.070000000000000000e+02 1.711925673096830747e-01
9.080000000000000000e+02 6.919690486496479775e-02
9.090000000000000000e+02 1.277920553827027461e-01
9.100000000000000000e+02 5.722106309716363907e-03
9.110000000000000000e+02 1.043379103920285267e-01
9.120000000000000000e+02 6.055843665491403988e-02
9.130000000000000000e+02 1.394610606212356128e-02
9.140000000000000000e+02 4.062056094773169868e-02
9.150000000000000000e+02 1.832352909581110301e-01
9.160000000000000000e+02 1.012214034104991223e-01
9.170000000000000000e+02 2.075138361335886472e-01
9.180000000000000000e+02 3.261993849025291436e-01
9.190000000000000000e+02 2.109471250777864293e-01
9.200000000000000000e+02 5.659644663596883479e-02
9.210000000000000000e+02 4.399092407196222854e-02
9.220000000000000000e+02 2.585215285210555880e-01
9.230000000000000000e+02 1.465893298070919393e-01
9.240000000000000000e+02 1.732322750466742667e-01
9.250000000000000000e+02 1.099763113461892095e-01
9.260000000000000000e+02 6.177573528604005104e-02
9.270000000000000000e+02 3.822495816013951608e-02
9.280000000000000000e+02 1.267950923814513964e-01
9.290000000000000000e+02 2.221267602157230292e-01
9.300000000000000000e+02 5.210269139410751010e-02
9.310000000000000000e+02 7.641033417278551843e-02
9.320000000000000000e+02 1.202925055463603399e-01
9.330000000000000000e+02 2.697639850653381632e-01
9.340000000000000000e+02 2.868044277120927465e-01
9.350000000000000000e+02 3.553618010786141479e-01
9.360000000000000000e+02 4.543002881144990734e-01
9.370000000000000000e+02 2.935700622277533367e-01
9.380000000000000000e+02 2.299786030692669014e-01
9.390000000000000000e+02 5.593482800684553002e-02
9.400000000000000000e+02 2.218530051856461571e-01
9.410000000000000000e+02 1.228231587428458976e-01
9.420000000000000000e+02 1.450909570616090993e-01
9.430000000000000000e+02 3.375083148724344895e-01
9.440000000000000000e+02 4.407203862297803809e-02
9.450000000000000000e+02 1.456533563992951086e-01
9.460000000000000000e+02 3.358708419415051827e-01
9.470000000000000000e+02 1.176113775188715460e-01
9.480000000000000000e+02 1.487335233063676321e-01
9.490000000000000000e+02 1.613724787388514936e-01
9.500000000000000000e+02 2.577917082123605819e-01
9.510000000000000000e+02 3.453319421281892954e-01
9.520000000000000000e+02 2.481213314665004777e-01
9.530000000000000000e+02 2.776672702758763989e-01
9.540000000000000000e+02 1.166436861646962114e-01
9.550000000000000000e+02 2.147367392657159313e-01
9.560000000000000000e+02 3.970357199751082811e-01
9.570000000000000000e+02 4.569314973040245476e-01
9.580000000000000000e+02 1.622481501176234187e-01
9.590000000000000000e+02 4.618950653391620809e-02
9.600000000000000000e+02 2.545012268768086505e-01
9.610000000000000000e+02 3.817981524579953101e-01
9.620000000000000000e+02 2.988128226509063623e-01
9.630000000000000000e+02 2.175347225217769964e-01
9.640000000000000000e+02 4.959394621344041798e-02
9.650000000000000000e+02 2.313087108483634913e-01
9.660000000000000000e+02 4.236395720804808085e-01
9.670000000000000000e+02 3.669215061190642668e-01
9.680000000000000000e+02 2.789843490976964269e-01
9.690000000000000000e+02 3.863545401369019583e-01
9.700000000000000000e+02 4.444426969508409875e-01
9.710000000000000000e+02 5.180091812901888026e-01
9.720000000000000000e+02 4.106842213233696803e-01
9.730000000000000000e+02 1.057064917075264121e-01
9.740000000000000000e+02 2.536944613151011496e-01
9.750000000000000000e+02 3.979030954159019084e-01
9.760000000000000000e+02 2.054937678904807385e-01
9.770000000000000000e+02 2.634356975731190764e-01
9.780000000000000000e+02 2.138975476042339063e-01
9.790000000000000000e+02 1.290163849466990087e-01
9.800000000000000000e+02 5.090843445333750883e-02
9.810000000000000000e+02 3.021690416925633393e-02
9.820000000000000000e+02 3.321665314250118461e-01
9.830000000000000000e+02 2.404966134384103893e-01
9.840000000000000000e+02 5.958132168035730480e-02
9.850000000000000000e+02 1.212695326695704817e-01
9.860000000000000000e+02 1.103015554823733868e-01
9.870000000000000000e+02 2.004193615432512121e-01
9.880000000000000000e+02 3.158958626840931427e-01
9.890000000000000000e+02 3.872707666943158711e-01
9.900000000000000000e+02 1.825233634100670854e-01
9.910000000000000000e+02 1.336650504044855081e-01
9.920000000000000000e+02 2.953811891723645555e-01
9.930000000000000000e+02 3.111831926986215469e-01
9.940000000000000000e+02 1.628179950217827354e-01
9.950000000000000000e+02 2.205676056834686705e-01
9.960000000000000000e+02 2.002108780336016858e-01
9.970000000000000000e+02 2.873516809790482296e-01
9.980000000000000000e+02 3.321962939224227251e-01
9.990000000000000000e+02 1.218069692329394188e-01
1.000000000000000000e+03 1.659109705760481446e-01
1.001000000000000000e+03 3.568934066390032633e-01
1.002000000000000000e+03 3.156732759336058347e-01
1.003000000000000000e+03 1.389118091286348500e-01
1.004000000000000000e+03 9.662096692531127462e-02
1.005000000000000000e+03 2.072818257261412889e-01
1.006000000000000000e+03 2.864070414937729958e-01
1.007000000000000000e+03 3.334934564315354955e-01
1.008000000000000000e+03 3.451998012422373696e-01
1.009000000000000000e+03 2.029576804979251747e-01
1.010000000000000000e+03 1.452797116182550918e-01
1.011000000000000000e+03 2.158798713692949567e-01
1.012000000000000000e+03 2.121571535269703990e-01
1.013000000000000000e+03 3.218263443983372385e-01
1.014000000000000000e+03 3.344150539419077917e-01
1.015000000000000000e+03 1.765472697095474830e-01
1.016000000000000000e+03 2.124507136929493500e-01
1.017000000000000000e+03 2.968173547717843919e-01
1.018000000000000000e+03 3.270634626556013225e-01
1.019000000000000000e+03 3.846096556016606605e-01
1.020000000000000000e+03 3.946643278008403199e-01
1.021000000000000000e+03 2.589811784232373681e-01
1.022000000000000000e+03 3.350836141078835095e-01
1.023000000000000000e+03 3.715811825726145212e-01
1.024000000000000000e+03 5.547751120331942953e-01
1.025000000000000000e+03 3.985105435684493380e-01
1.026000000000000000e+03 4.766627136929252329e-01
1.027000000000000000e+03 5.161768526970986759e-01
1.028000000000000000e+03 4.828554419087145999e-01
1.029000000000000000e+03 5.207188592132481197e-01
1.030000000000000000e+03 4.368715975103827365e-01
1.031000000000000000e+03 2.202726846473023192e-01
1.032000000000000000e+03 6.253367925311013042e-01
1.033000000000000000e+03 2.286521594202880203e-01
1.034000000000000000e+03 4.765944937759293842e-01
1.035000000000000000e+03 5.189679190871292480e-01
1.036000000000000000e+03 3.553536535269684049e-01
1.037000000000000000e+03 4.917832795030825932e-01
1.038000000000000000e+03 7.382585975103737042e-01
1.039000000000000000e+03 6.306083734439644761e-01
1.040000000000000000e+03 4.025318215767793029e-01
1.041000000000000000e+03 2.976659813664598309e-01
1.042000000000000000e+03 3.707316016597561603e-01
1.043000000000000000e+03 4.057323464730275830e-01
1.044000000000000000e+03 4.890563589211573969e-01
1.045000000000000000e+03 3.200506521739094334e-01
1.046000000000000000e+03 2.350089045643245500e-01
1.047000000000000000e+03 3.073946804979265646e-01
1.048000000000000000e+03 3.974726639004127482e-01
1.049000000000000000e+03 5.737131618257200749e-01
1.050000000000000000e+03 4.363948174273875602e-01
1.051000000000000000e+03 4.704149294605805554e-01
1.052000000000000000e+03 3.787820518672141423e-01
1.053000000000000000e+03 6.798566829457756977e-02
1.054000000000000000e+03 1.179946932613961802e-01
1.055000000000000000e+03 2.513432323651454969e-01
1.056000000000000000e+03 1.657703153526844941e-01
1.057000000000000000e+03 1.489768587385797982e-01
1.058000000000000000e+03 3.589721801242209964e-01
1.059000000000000000e+03 3.948618858921115748e-01
1.060000000000000000e+03 2.829577842323585668e-01
1.061000000000000000e+03 2.190785352697099675e-01
1.062000000000000000e+03 2.498527018633543706e-01
1.063000000000000000e+03 3.063285767634930656e-01
1.064000000000000000e+03 5.043023070539199848e-01
1.065000000000000000e+03 4.395217053941994356e-01
1.066000000000000000e+03 1.464896542442968574e-01
1.067000000000000000e+03 1.042046400269683870e-01
1.068000000000000000e+03 2.857391721991595079e-01
1.069000000000000000e+03 4.805536742738599210e-01
1.070000000000000000e+03 3.362611635610591176e-01
1.071000000000000000e+03 2.490152946058125094e-01
1.072000000000000000e+03 3.226920248962654170e-01
1.073000000000000000e+03 2.751252033194961921e-01
1.074000000000000000e+03 1.626887391304296382e-01
1.075000000000000000e+03 2.318243921161757815e-01
1.076000000000000000e+03 2.853255539419015663e-01
1.077000000000000000e+03 1.661259626556148283e-01
1.078000000000000000e+03 3.260224066389934006e-01
1.079000000000000000e+03 3.686203485477170250e-01
1.080000000000000000e+03 1.435284979252958448e-01
1.081000000000000000e+03 2.607801244813390262e-02
1.082000000000000000e+03 1.243018872572548839e-01
1.083000000000000000e+03 3.033083271221607147e-01
1.084000000000000000e+03 4.035551327800894206e-01
1.085000000000000000e+03 1.867183962655849794e-01
1.086000000000000000e+03 5.558925330705407480e-02
1.087000000000000000e+03 1.541517842323939791e-01
1.088000000000000000e+03 3.760775601659819278e-01
1.089000000000000000e+03 2.497639170124503760e-01
1.090000000000000000e+03 2.037706224066389571e-01
1.091000000000000000e+03 2.322777204968951570e-01
1.092000000000000000e+03 4.707399419087049952e-01
1.093000000000000000e+03 2.902380124481270807e-01
1.094000000000000000e+03 2.196874668049936530e-01
1.095000000000000000e+03 4.074085643153476100e-01
1.096000000000000000e+03 3.762121784232385080e-01
1.097000000000000000e+03 2.438377261410786812e-01
1.098000000000000000e+03 3.508468921161810861e-01
1.099000000000000000e+03 9.070463025466257712e-02
1.100000000000000000e+03 6.777858298755300159e-02
1.101000000000000000e+03 1.276739273859025803e-01
1.102000000000000000e+03 3.123165726140946230e-01
1.103000000000000000e+03 4.263275217391305771e-01
1.104000000000000000e+03 1.942247099377307773e-01
1.105000000000000000e+03 9.441450781742966036e-02
1.106000000000000000e+03 1.694895509543420664e-01
1.107000000000000000e+03 4.705319419087137245e-01
1.108000000000000000e+03 3.090042199169966697e-01
1.109000000000000000e+03 2.285008402489657198e-01
1.110000000000000000e+03 2.226878319502074155e-01
1.111000000000000000e+03 3.043393153527037542e-01
1.112000000000000000e+03 5.823303850931413894e-01
1.113000000000000000e+03 4.546819668049856822e-01
1.114000000000000000e+03 2.577111203319492616e-01
1.115000000000000000e+03 4.573024315352888780e-01
1.116000000000000000e+03 6.160270871369435408e-01
1.117000000000000000e+03 2.446322313672135706e-01
1.118000000000000000e+03 4.704869332156778883e-02
1.119000000000000000e+03 1.585792717842224586e-01
1.120000000000000000e+03 1.719763933747413265e-01
1.121000000000000000e+03 2.092831410788451585e-01
1.122000000000000000e+03 5.431975311203147694e-01
1.123000000000000000e+03 2.301002074689130483e-01
1.124000000000000000e+03 6.329655916597520804e-02
1.125000000000000000e+03 9.887823463070627428e-02
1.126000000000000000e+03 5.476951867220426068e-02
1.127000000000000000e+03 5.556638381742479149e-02
1.128000000000000000e+03 1.085932606935757633e-01
1.129000000000000000e+03 6.280881327798049085e-02
1.130000000000000000e+03 3.158230331950156455e-01
1.131000000000000000e+03 3.421780580912850422e-01
1.132000000000000000e+03 2.372939627329207213e-01
1.133000000000000000e+03 2.127008070539422868e-01
1.134000000000000000e+03 1.053030871369299848e-01
1.135000000000000000e+03 1.053713636805038018e-01
1.136000000000000000e+03 1.402670643153533514e-01
1.137000000000000000e+03 1.218292157676352100e-01
1.138000000000000000e+03 5.734234854771420864e-02
1.139000000000000000e+03 7.942800297511661001e-02
1.140000000000000000e+03 1.372171161892326852e-01
1.141000000000000000e+03 1.565820705394203594e-01
1.142000000000000000e+03 1.797733215767539083e-01
1.143000000000000000e+03 3.067056715934250721e-02
1.144000000000000000e+03 6.499927457053709945e-02
1.145000000000000000e+03 4.978684432364870877e-02
1.146000000000000000e+03 9.288083768464650003e-02
1.147000000000000000e+03 7.710851335270438311e-02
1.148000000000000000e+03 1.660002907966813546e-02
1.149000000000000000e+03 5.471766532919517673e-02
1.150000000000000000e+03 8.351248697302705859e-02
1.151000000000000000e+03 1.704357904564282600e-01
1.152000000000000000e+03 3.873468858921221281e-01
1.153000000000000000e+03 9.261959530743625602e-02
1.154000000000000000e+03 6.182165549792530135e-02
1.155000000000000000e+03 1.474889211618272446e-02
1.156000000000000000e+03 2.586944838589437176e-02
1.157000000000000000e+03 1.441190621117885706e-01
1.158000000000000000e+03 1.600931431535276284e-01
1.159000000000000000e+03 1.271343049792579838e-01
1.160000000000000000e+03 2.388557614107872096e-01
1.161000000000000000e+03 3.049046666666674898e-01
1.162000000000000000e+03 2.525149502074675034e-01
1.163000000000000000e+03 1.870509875518525933e-01
1.164000000000000000e+03 5.068213362808227790e-02
1.165000000000000000e+03 3.344261742738527943e-01
1.166000000000000000e+03 2.121849128630512171e-01
1.167000000000000000e+03 8.619075933609116058e-02
1.168000000000000000e+03 2.873500269709475252e-01
1.169000000000000000e+03 2.274027464522738184e-01
1.170000000000000000e+03 7.943717012448596460e-02
1.171000000000000000e+03 2.296533692945915694e-01
1.172000000000000000e+03 3.070622946058088609e-01
1.173000000000000000e+03 1.907084605809138966e-01
1.174000000000000000e+03 2.224974315352747367e-01
1.175000000000000000e+03 1.367812697095437957e-01
1.176000000000000000e+03 3.992010352697162312e-01
1.177000000000000000e+03 2.016857925310928668e-01
1.178000000000000000e+03 3.689460579710003296e-01
1.179000000000000000e+03 2.308662116182519930e-01
1.180000000000000000e+03 1.651969585062272317e-01
1.181000000000000000e+03 1.301368836016713326e-01
1.182000000000000000e+03 6.730514674534031350e-02
1.183000000000000000e+03 1.346255394190919719e-01
1.184000000000000000e+03 1.887785933609942568e-01
1.185000000000000000e+03 1.970165269709491518e-01
1.186000000000000000e+03 3.061719565217405625e-01
1.187000000000000000e+03 3.166243236514477699e-01
1.188000000000000000e+03 2.167617883817516133e-01
1.189000000000000000e+03 7.410219187137023766e-02
1.190000000000000000e+03 2.901337888198969872e-01
1.191000000000000000e+03 2.803959170124581401e-01
1.192000000000000000e+03 3.199525145228158118e-01
1.193000000000000000e+03 3.079448630705362566e-01
1.194000000000000000e+03 1.171111594202783740e-01
1.195000000000000000e+03 1.220177294356656478e-01
1.196000000000000000e+03 3.224341618257260400e-01
1.197000000000000000e+03 2.362705767634918907e-01
1.198000000000000000e+03 3.276506639004155286e-01
1.199000000000000000e+03 2.523257904564362164e-01
1.200000000000000000e+03 7.294700203319803844e-02
1.201000000000000000e+03 6.796070311203901149e-01
1.202000000000000000e+03 3.039296659751509755e-01
1.203000000000000000e+03 2.543745518672253514e-01
1.204000000000000000e+03 2.086660871369107606e-01
1.205000000000000000e+03 2.019408547717711500e-01
1.206000000000000000e+03 2.253705020746930576e-01
1.207000000000000000e+03 1.560344564315461480e-01
1.208000000000000000e+03 3.045720829875542823e-01
1.209000000000000000e+03 3.211498921161807796e-01
1.210000000000000000e+03 3.148953672199161224e-01
1.211000000000000000e+03 1.702576666666528182e-01
1.212000000000000000e+03 2.655887926140561295e-02
1.213000000000000000e+03 2.494188755186686479e-01
1.214000000000000000e+03 2.544957136929407726e-01
1.215000000000000000e+03 8.547505527122484237e-02
1.216000000000000000e+03 2.739047074688643058e-01
1.217000000000000000e+03 1.797304502074599797e-01
1.218000000000000000e+03 2.694629605809610862e-01
1.219000000000000000e+03 3.780852173913221703e-01
1.220000000000000000e+03 3.253500200000000037e-02
1.221000000000000000e+03 4.759820514771254812e-02
1.222000000000000000e+03 4.107199485061844429e-02
1.223000000000000000e+03 8.018086878882681179e-02
1.224000000000000000e+03 1.964963713692989833e-01
1.225000000000000000e+03 1.954982012448127082e-01
1.226000000000000000e+03 1.813775684647304376e-01
1.227000000000000000e+03 1.636135477178425612e-01
1.228000000000000000e+03 1.329609087136903456e-01
1.229000000000000000e+03 7.002400862656302238e-02
1.230000000000000000e+03 1.029791693526937446e-01
1.231000000000000000e+03 1.486778589211610047e-01
1.232000000000000000e+03 1.806918174273788591e-01
1.233000000000000000e+03 3.186635622406553958e-01
1.234000000000000000e+03 3.924560705394179450e-01
1.235000000000000000e+03 2.607230871369384806e-01
1.236000000000000000e+03 3.051876929460787258e-01
1.237000000000000000e+03 9.369852208298259932e-02
1.238000000000000000e+03 5.151438589211658758e-01
1.239000000000000000e+03 2.102491867219874466e-01
1.240000000000000000e+03 2.530558136645874034e-01
1.241000000000000000e+03 2.305217904564284270e-01
1.242000000000000000e+03 2.510591763485577887e-01
1.243000000000000000e+03 2.829039543568502291e-01
1.244000000000000000e+03 2.279872795031060440e-01
1.245000000000000000e+03 4.174465684647533648e-01
1.246000000000000000e+03 4.889880788382020560e-01
1.247000000000000000e+03 4.982622190870602402e-02
1.248000000000000000e+03 1.290225871369189981e-01
1.249000000000000000e+03 5.704229130498918859e-02
1.250000000000000000e+03 3.088988547717938515e-01
1.251000000000000000e+03 7.949226148547777759e-02
1.252000000000000000e+03 2.311373354037337124e-01
1.253000000000000000e+03 1.683439875518742412e-01
1.254000000000000000e+03 2.913731203319429586e-01
1.255000000000000000e+03 3.597604522821558071e-01
1.256000000000000000e+03 1.003859453858631096e-01
1.257000000000000000e+03 1.765780562717664814e-01
1.258000000000000000e+03 2.776516680497912448e-01
1.259000000000000000e+03 2.195095207469035525e-01
1.260000000000000000e+03 4.266734107883798921e-01
1.261000000000000000e+03 2.718484979253066314e-01
1.262000000000000000e+03 4.410843112033100422e-01
1.263000000000000000e+03 2.613288091286404824e-01
1.264000000000000000e+03 4.165906514522847992e-01
1.265000000000000000e+03 2.551914481327762774e-01
1.266000000000000000e+03 1.293459854771749629e-01
1.267000000000000000e+03 1.658448008298646914e-01
1.268000000000000000e+03 4.403014004149299332e-01
1.269000000000000000e+03 5.833775113871643159e-01
1.270000000000000000e+03 4.182603402489739608e-01
1.271000000000000000e+03 4.690525228215622899e-01
1.272000000000000000e+03 6.465224564315361633e-01
1.273000000000000000e+03 3.967846521738706000e-01
1.274000000000000000e+03 8.617736090869283772e-02
1.275000000000000000e+03 3.756759605809107949e-01
1.276000000000000000e+03 5.082351203319512845e-01
1.277000000000000000e+03 4.653215643153693626e-01
1.278000000000000000e+03 2.799206846473070165e-01
1.279000000000000000e+03 2.441016721991734473e-01
1.280000000000000000e+03 4.648739211618342360e-01
1.281000000000000000e+03 3.134374906832471108e-01
1.282000000000000000e+03 1.159277098672193418e-01
1.283000000000000000e+03 2.080775995850748239e-01
1.284000000000000000e+03 2.559714398340275920e-01
1.285000000000000000e+03 2.533324937759321993e-01
1.286000000000000000e+03 2.587102199170117633e-01
1.287000000000000000e+03 1.980890456431451674e-01
1.288000000000000000e+03 9.237549162656367996e-02
1.289000000000000000e+03 9.272735315734964567e-02
1.290000000000000000e+03 2.310509979252932389e-01
1.291000000000000000e+03 4.169068049792285652e-02
1.292000000000000000e+03 7.171432804149527329e-02
1.293000000000000000e+03 3.021215280954788265e-02
1.294000000000000000e+03 5.343712033194877170e-02
1.295000000000000000e+03 0.000000000000000000e+00
1.296000000000000000e+03 0.000000000000000000e+00
1.297000000000000000e+03 0.000000000000000000e+00
1.298000000000000000e+03 0.000000000000000000e+00
1.299000000000000000e+03 0.000000000000000000e+00
1.300000000000000000e+03 0.000000000000000000e+00
1.301000000000000000e+03 0.000000000000000000e+00
1.302000000000000000e+03 0.000000000000000000e+00
1.303000000000000000e+03 0.000000000000000000e+00
1.304000000000000000e+03 0.000000000000000000e+00
1.305000000000000000e+03 0.000000000000000000e+00
1.306000000000000000e+03 0.000000000000000000e+00
1.307000000000000000e+03 0.000000000000000000e+00
1.308000000000000000e+03 0.000000000000000000e+00
1.309000000000000000e+03 0.000000000000000000e+00
1.310000000000000000e+03 0.000000000000000000e+00
1.311000000000000000e+03 0.000000000000000000e+00
1.312000000000000000e+03 0.000000000000000000e+00
1.313000000000000000e+03 0.000000000000000000e+00
1.314000000000000000e+03 0.000000000000000000e+00
1.315000000000000000e+03 0.000000000000000000e+00
1.316000000000000000e+03 0.000000000000000000e+00
1.317000000000000000e+03 0.000000000000000000e+00
1.318000000000000000e+03 0.000000000000000000e+00
1.319000000000000000e+03 0.000000000000000000e+00
1.320000000000000000e+03 0.000000000000000000e+00
1.321000000000000000e+03 0.000000000000000000e+00
1.322000000000000000e+03 0.000000000000000000e+00
1.323000000000000000e+03 0.000000000000000000e+00
1.324000000000000000e+03 0.000000000000000000e+00
1.325000000000000000e+03 0.000000000000000000e+00
1.326000000000000000e+03 0.000000000000000000e+00
1.327000000000000000e+03 0.000000000000000000e+00
1.328000000000000000e+03 0.000000000000000000e+00
1.329000000000000000e+03 0.000000000000000000e+00
1.330000000000000000e+03 0.000000000000000000e+00
1.331000000000000000e+03 0.000000000000000000e+00
1.332000000000000000e+03 0.000000000000000000e+00
1.333000000000000000e+03 0.000000000000000000e+00
1.334000000000000000e+03 0.000000000000000000e+00
1.335000000000000000e+03 0.000000000000000000e+00
1.336000000000000000e+03 0.000000000000000000e+00
1.337000000000000000e+03 0.000000000000000000e+00
1.338000000000000000e+03 0.000000000000000000e+00
1.339000000000000000e+03 0.000000000000000000e+00
1.340000000000000000e+03 0.000000000000000000e+00
1.341000000000000000e+03 0.000000000000000000e+00
1.342000000000000000e+03 0.000000000000000000e+00
1.343000000000000000e+03 0.000000000000000000e+00
1.344000000000000000e+03 0.000000000000000000e+00
1.345000000000000000e+03 0.000000000000000000e+00
1.346000000000000000e+03 0.000000000000000000e+00
1.347000000000000000e+03 0.000000000000000000e+00
1.348000000000000000e+03 0.000000000000000000e+00
1.349000000000000000e+03 0.000000000000000000e+00
1.350000000000000000e+03 0.000000000000000000e+00
1.351000000000000000e+03 0.000000000000000000e+00
1.352000000000000000e+03 0.000000000000000000e+00
1.353000000000000000e+03 0.000000000000000000e+00
1.354000000000000000e+03 0.000000000000000000e+00
1.355000000000000000e+03 0.000000000000000000e+00
1.356000000000000000e+03 0.000000000000000000e+00
1.357000000000000000e+03 0.000000000000000000e+00
1.358000000000000000e+03 0.000000000000000000e+00
1.359000000000000000e+03 0.000000000000000000e+00
1.360000000000000000e+03 0.000000000000000000e+00
1.361000000000000000e+03 0.000000000000000000e+00
1.362000000000000000e+03 0.000000000000000000e+00
1.363000000000000000e+03 0.000000000000000000e+00
1.364000000000000000e+03 0.000000000000000000e+00
1.365000000000000000e+03 0.000000000000000000e+00
1.366000000000000000e+03 0.000000000000000000e+00
1.367000000000000000e+03 0.000000000000000000e+00
1.368000000000000000e+03 0.000000000000000000e+00
1.369000000000000000e+03 0.000000000000000000e+00
1.370000000000000000e+03 0.000000000000000000e+00
1.371000000000000000e+03 0.000000000000000000e+00
1.372000000000000000e+03 0.000000000000000000e+00
1.373000000000000000e+03 0.000000000000000000e+00
1.374000000000000000e+03 0.000000000000000000e+00
1.375000000000000000e+03 0.000000000000000000e+00
1.376000000000000000e+03 0.000000000000000000e+00
1.377000000000000000e+03 0.000000000000000000e+00
1.378000000000000000e+03 0.000000000000000000e+00
1.379000000000000000e+03 0.000000000000000000e+00
1.380000000000000000e+03 0.000000000000000000e+00
1.381000000000000000e+03 0.000000000000000000e+00
1.382000000000000000e+03 0.000000000000000000e+00
1.383000000000000000e+03 0.000000000000000000e+00
1.384000000000000000e+03 0.000000000000000000e+00
1.385000000000000000e+03 0.000000000000000000e+00
1.386000000000000000e+03 0.000000000000000000e+00
1.387000000000000000e+03 0.000000000000000000e+00
1.388000000000000000e+03 0.000000000000000000e+00
1.389000000000000000e+03 0.000000000000000000e+00
1.390000000000000000e+03 0.000000000000000000e+00
1.391000000000000000e+03 0.000000000000000000e+00
1.392000000000000000e+03 0.000000000000000000e+00
1.393000000000000000e+03 0.000000000000000000e+00
1.394000000000000000e+03 0.000000000000000000e+00
1.395000000000000000e+03 0.000000000000000000e+00
1.396000000000000000e+03 0.000000000000000000e+00
1.397000000000000000e+03 0.000000000000000000e+00
1.398000000000000000e+03 0.000000000000000000e+00
1.399000000000000000e+03 0.000000000000000000e+00
1.400000000000000000e+03 0.000000000000000000e+00
1.401000000000000000e+03 0.000000000000000000e+00
1.402000000000000000e+03 0.000000000000000000e+00
1.403000000000000000e+03 0.000000000000000000e+00
1.404000000000000000e+03 0.000000000000000000e+00
1.405000000000000000e+03 0.000000000000000000e+00
1.406000000000000000e+03 0.000000000000000000e+00
1.407000000000000000e+03 0.000000000000000000e+00
1.408000000000000000e+03 0.000000000000000000e+00
1.409000000000000000e+03 0.000000000000000000e+00
1.410000000000000000e+03 0.000000000000000000e+00
1.411000000000000000e+03 0.000000000000000000e+00
1.412000000000000000e+03 0.000000000000000000e+00
1.413000000000000000e+03 0.000000000000000000e+00
1.414000000000000000e+03 0.000000000000000000e+00
1.415000000000000000e+03 0.000000000000000000e+00
1.416000000000000000e+03 0.000000000000000000e+00
1.417000000000000000e+03 0.000000000000000000e+00
1.418000000000000000e+03 0.000000000000000000e+00
1.419000000000000000e+03 0.000000000000000000e+00
1.420000000000000000e+03 0.000000000000000000e+00
1.421000000000000000e+03 0.000000000000000000e+00
1.422000000000000000e+03 0.000000000000000000e+00
1.423000000000000000e+03 0.000000000000000000e+00
1.424000000000000000e+03 0.000000000000000000e+00
1.425000000000000000e+03 0.000000000000000000e+00
1.426000000000000000e+03 0.000000000000000000e+00
1.427000000000000000e+03 0.000000000000000000e+00
1.428000000000000000e+03 0.000000000000000000e+00
1.429000000000000000e+03 0.000000000000000000e+00
1.430000000000000000e+03 0.000000000000000000e+00
1.431000000000000000e+03 0.000000000000000000e+00
1.432000000000000000e+03 0.000000000000000000e+00
1.433000000000000000e+03 0.000000000000000000e+00
1.434000000000000000e+03 0.000000000000000000e+00
1.435000000000000000e+03 0.000000000000000000e+00
1.436000000000000000e+03 0.000000000000000000e+00
1.437000000000000000e+03 0.000000000000000000e+00
1.438000000000000000e+03 0.000000000000000000e+00
1.439000000000000000e+03 0.000000000000000000e+00
1.440000000000000000e+03 0.000000000000000000e+00
1.441000000000000000e+03 0.000000000000000000e+00
1.442000000000000000e+03 0.000000000000000000e+00
1.443000000000000000e+03 0.000000000000000000e+00
1.444000000000000000e+03 0.000000000000000000e+00
1.445000000000000000e+03 0.000000000000000000e+00
1.446000000000000000e+03 0.000000000000000000e+00
1.447000000000000000e+03 0.000000000000000000e+00
1.448000000000000000e+03 0.000000000000000000e+00
1.449000000000000000e+03 0.000000000000000000e+00
1.450000000000000000e+03 0.000000000000000000e+00
1.451000000000000000e+03 0.000000000000000000e+00
1.452000000000000000e+03 0.000000000000000000e+00
1.453000000000000000e+03 0.000000000000000000e+00
1.454000000000000000e+03 0.000000000000000000e+00
1.455000000000000000e+03 0.000000000000000000e+00
1.456000000000000000e+03 0.000000000000000000e+00
1.457000000000000000e+03 0.000000000000000000e+00
1.458000000000000000e+03 0.000000000000000000e+00
1.459000000000000000e+03 0.000000000000000000e+00
1.460000000000000000e+03 0.000000000000000000e+00
1.461000000000000000e+03 0.000000000000000000e+00
1.462000000000000000e+03 0.000000000000000000e+00
1.463000000000000000e+03 0.000000000000000000e+00
1.464000000000000000e+03 0.000000000000000000e+00
1.465000000000000000e+03 0.000000000000000000e+00
1.466000000000000000e+03 0.000000000000000000e+00
1.467000000000000000e+03 0.000000000000000000e+00
1.468000000000000000e+03 0.000000000000000000e+00
1.469000000000000000e+03 0.000000000000000000e+00
1.470000000000000000e+03 0.000000000000000000e+00
1.471000000000000000e+03 0.000000000000000000e+00
1.472000000000000000e+03 0.000000000000000000e+00
1.473000000000000000e+03 0.000000000000000000e+00
1.474000000000000000e+03 0.000000000000000000e+00
1.475000000000000000e+03 0.000000000000000000e+00
1.476000000000000000e+03 0.000000000000000000e+00
1.477000000000000000e+03 0.000000000000000000e+00
1.478000000000000000e+03 0.000000000000000000e+00
1.479000000000000000e+03 0.000000000000000000e+00
1.480000000000000000e+03 0.000000000000000000e+00
1.481000000000000000e+03 0.000000000000000000e+00
1.482000000000000000e+03 0.000000000000000000e+00
1.483000000000000000e+03 0.000000000000000000e+00
1.484000000000000000e+03 0.000000000000000000e+00
1.485000000000000000e+03 0.000000000000000000e+00
1.486000000000000000e+03 0.000000000000000000e+00
1.487000000000000000e+03 0.000000000000000000e+00
1.488000000000000000e+03 0.000000000000000000e+00
1.489000000000000000e+03 0.000000000000000000e+00
1.490000000000000000e+03 0.000000000000000000e+00
1.491000000000000000e+03 0.000000000000000000e+00
1.492000000000000000e+03 0.000000000000000000e+00
1.493000000000000000e+03 0.000000000000000000e+00
1.494000000000000000e+03 0.000000000000000000e+00
1.495000000000000000e+03 0.000000000000000000e+00
1.496000000000000000e+03 0.000000000000000000e+00
1.497000000000000000e+03 0.000000000000000000e+00
1.498000000000000000e+03 0.000000000000000000e+00
1.499000000000000000e+03 0.000000000000000000e+00
1.500000000000000000e+03 0.000000000000000000e+00
