1.010000000000000000e+02 0.000000000000000000e+00
1.020000000000000000e+02 0.000000000000000000e+00
1.030000000000000000e+02 0.000000000000000000e+00
1.040000000000000000e+02 0.000000000000000000e+00
1.050000000000000000e+02 0.000000000000000000e+00
1.060000000000000000e+02 0.000000000000000000e+00
1.070000000000000000e+02 0.000000000000000000e+00
1.080000000000000000e+02 0.000000000000000000e+00
1.090000000000000000e+02 0.000000000000000000e+00
1.100000000000000000e+02 0.000000000000000000e+00
1.110000000000000000e+02 0.000000000000000000e+00
1.120000000000000000e+02 0.000000000000000000e+00
1.130000000000000000e+02 0.000000000000000000e+00
1.140000000000000000e+02 0.000000000000000000e+00
1.150000000000000000e+02 0.000000000000000000e+00
1.160000000000000000e+02 0.000000000000000000e+00
1.170000000000000000e+02 0.000000000000000000e+00
1.180000000000000000e+02 0.000000000000000000e+00
1.190000000000000000e+02 0.000000000000000000e+00
1.200000000000000000e+02 0.000000000000000000e+00
1.210000000000000000e+02 0.000000000000000000e+00
1.220000000000000000e+02 0.000000000000000000e+00
1.230000000000000000e+02 0.000000000000000000e+00
1.240000000000000000e+02 0.000000000000000000e+00
1.250000000000000000e+02 0.000000000000000000e+00
1.260000000000000000e+02 0.000000000000000000e+00
1.270000000000000000e+02 0.000000000000000000e+00
1.280000000000000000e+02 0.000000000000000000e+00
1.290000000000000000e+02 0.000000000000000000e+00
1.300000000000000000e+02 0.000000000000000000e+00
1.310000000000000000e+02 0.000000000000000000e+00
1.320000000000000000e+02 0.000000000000000000e+00
1.330000000000000000e+02 0.000000000000000000e+00
1.340000000000000000e+02 0.000000000000000000e+00
1.350000000000000000e+02 0.000000000000000000e+00
1.360000000000000000e+02 0.000000000000000000e+00
1.370000000000000000e+02 0.000000000000000000e+00
1.380000000000000000e+02 0.000000000000000000e+00
1.390000000000000000e+02 0.000000000000000000e+00
1.400000000000000000e+02 0.000000000000000000e+00
1.410000000000000000e+02 0.000000000000000000e+00
1.420000000000000000e+02 0.000000000000000000e+00
1.430000000000000000e+02 0.000000000000000000e+00
1.440000000000000000e+02 0.000000000000000000e+00
1.450000000000000000e+02 0.000000000000000000e+00
1.460000000000000000e+02 0.000000000000000000e+00
1.470000000000000000e+02 0.000000000000000000e+00
1.480000000000000000e+02 0.000000000000000000e+00
1.490000000000000000e+02 0.000000000000000000e+00
1.500000000000000000e+02 0.000000000000000000e+00
1.510000000000000000e+02 0.000000000000000000e+00
1.520000000000000000e+02 0.000000000000000000e+00
1.530000000000000000e+02 0.000000000000000000e+00
1.540000000000000000e+02 0.000000000000000000e+00
1.550000000000000000e+02 0.000000000000000000e+00
1.560000000000000000e+02 0.000000000000000000e+00
1.570000000000000000e+02 0.000000000000000000e+00
1.580000000000000000e+02 0.000000000000000000e+00
1.590000000000000000e+02 0.000000000000000000e+00
1.600000000000000000e+02 0.000000000000000000e+00
1.610000000000000000e+02 0.000000000000000000e+00
1.620000000000000000e+02 0.000000000000000000e+00
1.630000000000000000e+02 0.000000000000000000e+00
1.640000000000000000e+02 0.000000000000000000e+00
1.650000000000000000e+02 0.000000000000000000e+00
1.660000000000000000e+02 0.000000000000000000e+00
1.670000000000000000e+02 0.000000000000000000e+00
1.680000000000000000e+02 0.000000000000000000e+00
1.690000000000000000e+02 1.035125013482942613e+01
1.700000000000000000e+02 1.566256378888431868e+02
1.710000000000000000e+02 2.207546453225471055e+02
1.720000000000000000e+02 3.394755637834471713e+02
1.730000000000000000e+02 2.867318313148073230e+02
1.740000000000000000e+02 2.606443123625808198e+02
1.750000000000000000e+02 2.719938682223603905e+02
1.760000000000000000e+02 1.793267141020327813e+02
1.770000000000000000e+02 1.444837395146237213e+02
1.780000000000000000e+02 4.919184701514053870e+01
1.790000000000000000e+02 2.050622476980506192e+01
1.800000000000000000e+02 2.785243061190613645e+01
1.810000000000000000e+02 2.313452375855618115e+01
1.820000000000000000e+02 1.507327591785974796e+01
1.830000000000000000e+02 1.528481777432084243e+02
1.840000000000000000e+02 3.741470801700891684e+02
1.850000000000000000e+02 3.696474210329798780e+02
1.860000000000000000e+02 5.887125341630355706e+02
1.870000000000000000e+02 8.976649678282539071e+02
1.880000000000000000e+02 1.214793856046463588e+03
1.890000000000000000e+02 1.592726780750879698e+03
1.900000000000000000e+02 1.909362133789667041e+03
1.910000000000000000e+02 2.184647110143126156e+03
1.920000000000000000e+02 2.596046982576230675e+03
1.930000000000000000e+02 3.242501234757359271e+03
1.940000000000000000e+02 3.757324797552370455e+03
1.950000000000000000e+02 3.565382632233969161e+03
1.960000000000000000e+02 2.823862098942124703e+03
1.970000000000000000e+02 1.925087355942751856e+03
1.980000000000000000e+02 1.427582536610665557e+03
1.990000000000000000e+02 8.916794239576789778e+02
2.000000000000000000e+02 5.109182087118841764e+02
2.010000000000000000e+02 3.669180028209914326e+02
2.020000000000000000e+02 3.373045101638665528e+02
2.030000000000000000e+02 3.250150925948973395e+02
2.040000000000000000e+02 4.131054110765416567e+02
2.050000000000000000e+02 4.571060267579339893e+02
2.060000000000000000e+02 3.684066356150179331e+02
2.070000000000000000e+02 3.711503468989832299e+02
2.080000000000000000e+02 5.295928412777448102e+02
2.090000000000000000e+02 6.559885803982577954e+02
2.100000000000000000e+02 7.039727777685606043e+02
2.110000000000000000e+02 8.010207696121120762e+02
2.120000000000000000e+02 1.005631333748187330e+03
2.130000000000000000e+02 1.101555592077975916e+03
2.140000000000000000e+02 1.061709672059738750e+03
2.150000000000000000e+02 9.826537589504256403e+02
2.160000000000000000e+02 9.342668212360014195e+02
2.170000000000000000e+02 6.911474215308002158e+02
2.180000000000000000e+02 4.604802471064091947e+02
2.190000000000000000e+02 4.008650901700540885e+02
2.200000000000000000e+02 4.288464109728269023e+02
2.210000000000000000e+02 4.141906386226920631e+02
2.220000000000000000e+02 2.698156566479980256e+02
2.230000000000000000e+02 1.153341870566272434e+02
2.240000000000000000e+02 1.363410342874916807e+02
2.250000000000000000e+02 2.048161766438500990e+02
2.260000000000000000e+02 1.677790189794643538e+02
2.270000000000000000e+02 7.483005190170072751e+01
2.280000000000000000e+02 5.916397861232023558e+01
2.290000000000000000e+02 2.310530377929891301e+02
2.300000000000000000e+02 2.487329913313974430e+02
2.310000000000000000e+02 2.369155750466707957e+02
2.320000000000000000e+02 2.404577695084008724e+02
2.330000000000000000e+02 1.891963887598502652e+02
2.340000000000000000e+02 1.737826539307197322e+02
2.350000000000000000e+02 1.934900030906452173e+02
2.360000000000000000e+02 2.527215874507356830e+02
2.370000000000000000e+02 3.355262948350961665e+02
2.380000000000000000e+02 3.371673211781786108e+02
2.390000000000000000e+02 3.066107404480397349e+02
2.400000000000000000e+02 2.523576692387473486e+02
2.410000000000000000e+02 2.097389648413193299e+02
2.420000000000000000e+02 2.353574169881775049e+02
2.430000000000000000e+02 3.648295588052279754e+02
2.440000000000000000e+02 4.601588318398672186e+02
2.450000000000000000e+02 5.439722652561699761e+02
2.460000000000000000e+02 7.025011947728705763e+02
2.470000000000000000e+02 9.977799778054370563e+02
2.480000000000000000e+02 1.111098850653391310e+03
2.490000000000000000e+02 1.309142295374401783e+03
2.500000000000000000e+02 1.618306414143507482e+03
2.510000000000000000e+02 1.808200946484134192e+03
2.520000000000000000e+02 2.115442219249119717e+03
2.530000000000000000e+02 2.590297271256737986e+03
2.540000000000000000e+02 3.176247777846912868e+03
2.550000000000000000e+02 3.825773575606729082e+03
2.560000000000000000e+02 4.597306008087933151e+03
2.570000000000000000e+02 5.309557618958720013e+03
2.580000000000000000e+02 6.247479276913494687e+03
2.590000000000000000e+02 7.622336725839910287e+03
2.600000000000000000e+02 9.472709115121357172e+03
2.610000000000000000e+02 1.141597136693632274e+04
2.620000000000000000e+02 1.096229841339966333e+04
2.630000000000000000e+02 8.308204640530950201e+03
2.640000000000000000e+02 4.712040653391387423e+03
2.650000000000000000e+02 2.551285196639721562e+03
2.660000000000000000e+02 1.576415428749209013e+03
2.670000000000000000e+02 1.089498290976968519e+03
2.680000000000000000e+02 7.706581520431486751e+02
2.690000000000000000e+02 6.279188184816447347e+02
2.700000000000000000e+02 6.048402386226922545e+02
2.710000000000000000e+02 4.697949242688261506e+02
2.720000000000000000e+02 2.837260735117222339e+02
2.730000000000000000e+02 2.288913070939628085e+02
2.740000000000000000e+02 4.456015976353450583e+02
2.750000000000000000e+02 3.131568198921404473e+02
2.760000000000000000e+02 2.776382116963901581e+02
2.770000000000000000e+02 3.343615431653176415e+02
2.780000000000000000e+02 2.376668848164280803e+02
2.790000000000000000e+02 2.458524197013686603e+02
2.800000000000000000e+02 1.706132086703984214e+02
2.810000000000000000e+02 9.345324455412699649e+01
2.820000000000000000e+02 1.406479605683426826e+02
2.830000000000000000e+02 3.066652041692606758e+02
2.840000000000000000e+02 1.607838776856079335e+02
2.850000000000000000e+02 2.563389591578454656e+02
2.860000000000000000e+02 3.333229965567344948e+02
2.870000000000000000e+02 7.038371094981442866e+01
2.880000000000000000e+02 2.118125316739246102e+02
2.890000000000000000e+02 2.793072425845261364e+02
2.900000000000000000e+02 2.716505283965981334e+02
2.910000000000000000e+02 1.911835914540553460e+02
2.920000000000000000e+02 1.032774133665203209e+01
2.930000000000000000e+02 2.951426320473049358e+01
2.940000000000000000e+02 1.317475459655680368e+02
2.950000000000000000e+02 8.203683229620358475e+01
2.960000000000000000e+02 6.696395517527464847e+01
2.970000000000000000e+02 4.504774070690930898e+01
2.980000000000000000e+02 8.211494616469599350e+01
2.990000000000000000e+02 6.490232822650955313e+01
3.000000000000000000e+02 4.754434775150346582e+01
3.010000000000000000e+02 4.011353156813932230e+01
3.020000000000000000e+02 4.683865993777205716e+01
3.030000000000000000e+02 8.213782088985652763e+01
3.040000000000000000e+02 5.193729539278559315e+01
3.050000000000000000e+02 2.779165714167165646e+01
3.060000000000000000e+02 4.637640572495273261e+01
3.070000000000000000e+02 9.517727032559074019e+01
3.080000000000000000e+02 5.687022395768513405e+01
3.090000000000000000e+02 2.451861398465017317e+01
3.100000000000000000e+02 1.048254444960601717e+02
3.110000000000000000e+02 2.347315752333547891e+02
3.120000000000000000e+02 1.250426893797961441e+02
3.130000000000000000e+02 5.679261790543365862e+01
3.140000000000000000e+02 7.360163608380008782e+01
3.150000000000000000e+02 6.699750823895453777e+01
3.160000000000000000e+02 9.581778895457321710e+01
3.170000000000000000e+02 1.105986374611074723e+02
3.180000000000000000e+02 7.814906919933490315e+01
3.190000000000000000e+02 3.167743451358640527e+01
3.200000000000000000e+02 4.653149973241968240e+01
3.210000000000000000e+02 1.074207420659612495e+02
3.220000000000000000e+02 3.800597700477167962e+01
3.230000000000000000e+02 2.906303337896797956e+01
3.240000000000000000e+02 4.023245510889749710e+01
3.250000000000000000e+02 6.891072182949595515e+01
3.260000000000000000e+02 4.349882155071513523e+01
3.270000000000000000e+02 6.192220813524173195e+01
3.280000000000000000e+02 1.170335325865997902e+02
3.290000000000000000e+02 4.087406658369662438e+01
3.300000000000000000e+02 2.260230986520115835e+02
3.310000000000000000e+02 1.981365320058059467e+02
3.320000000000000000e+02 1.558273461107662854e+02
3.330000000000000000e+02 2.078678236416424454e+02
3.340000000000000000e+02 2.066726226509014452e+02
3.350000000000000000e+02 1.468394843393478482e+02
3.360000000000000000e+02 1.558222499999999968e+02
3.370000000000000000e+02 3.199766207218359000e+02
3.380000000000000000e+02 4.992731366521456948e+02
3.390000000000000000e+02 3.977024697635834514e+02
3.400000000000000000e+02 4.201957544285409654e+02
3.410000000000000000e+02 4.228650972412368105e+02
3.420000000000000000e+02 3.858768729572790903e+02
3.430000000000000000e+02 3.935090833851891148e+02
3.440000000000000000e+02 5.720518440157640043e+02
3.450000000000000000e+02 5.331837761667698032e+02
3.460000000000000000e+02 5.549347983613365614e+02
3.470000000000000000e+02 6.671841652769135180e+02
3.480000000000000000e+02 7.472089841941533450e+02
3.490000000000000000e+02 9.019246276913517022e+02
3.500000000000000000e+02 8.641224144338459610e+02
3.510000000000000000e+02 8.776347811449913934e+02
3.520000000000000000e+02 1.040664222588678740e+03
3.530000000000000000e+02 1.175640003111386704e+03
3.540000000000000000e+02 1.087997549678492533e+03
3.550000000000000000e+02 1.136364333540756434e+03
3.560000000000000000e+02 1.140134374403651236e+03
3.570000000000000000e+02 1.065661616677036818e+03
3.580000000000000000e+02 1.172048544172540460e+03
3.590000000000000000e+02 1.289176830533084512e+03
3.600000000000000000e+02 1.189623949180668433e+03
3.610000000000000000e+02 1.141089568643716348e+03
3.620000000000000000e+02 1.213984752955816930e+03
3.630000000000000000e+02 1.033875988073013104e+03
3.640000000000000000e+02 9.538605576109495132e+02
3.650000000000000000e+02 1.044082161273598331e+03
3.660000000000000000e+02 1.135868449906658725e+03
3.670000000000000000e+02 1.077574407299877294e+03
3.680000000000000000e+02 8.598128292885256769e+02
3.690000000000000000e+02 9.155151911221770433e+02
3.700000000000000000e+02 8.912372156191682961e+02
3.710000000000000000e+02 7.399458425015593548e+02
3.720000000000000000e+02 5.762789089193146310e+02
3.730000000000000000e+02 4.835430454055174323e+02
3.740000000000000000e+02 5.976523016386627205e+02
3.750000000000000000e+02 5.744705596764196116e+02
3.760000000000000000e+02 4.535663664592408963e+02
3.770000000000000000e+02 4.866507518564614543e+02
3.780000000000000000e+02 3.542825853349934846e+02
3.790000000000000000e+02 4.881267613565682382e+02
3.800000000000000000e+02 5.235247739887981879e+02
3.810000000000000000e+02 4.171749276291225783e+02
3.820000000000000000e+02 4.813125563368608937e+02
3.830000000000000000e+02 5.000719761667702983e+02
3.840000000000000000e+02 3.487497325591026538e+02
3.850000000000000000e+02 2.021311063472321052e+02
3.860000000000000000e+02 1.902400871396000355e+02
3.870000000000000000e+02 2.623857442554950126e+02
3.880000000000000000e+02 1.459811099771847012e+02
3.890000000000000000e+02 2.625158483509587199e+02
3.900000000000000000e+02 3.579074538780581634e+02
3.910000000000000000e+02 2.482947343704640843e+02
3.920000000000000000e+02 1.373130787181091534e+02
3.930000000000000000e+02 2.383674472832845481e+02
3.940000000000000000e+02 2.642638591785936910e+02
3.950000000000000000e+02 1.916956371707121889e+02
3.960000000000000000e+02 1.238592598921604946e+02
3.970000000000000000e+02 1.907768997096042369e+02
3.980000000000000000e+02 2.308745006845051648e+02
3.990000000000000000e+02 4.303431234598947697e+01
4.000000000000000000e+02 9.927645735324277609e+01
4.010000000000000000e+02 9.403040739680528759e+01
4.020000000000000000e+02 1.558289621447849171e+01
4.030000000000000000e+02 2.119037935283235541e+01
4.040000000000000000e+02 5.157121420452226346e+01
4.050000000000000000e+02 4.321665293715060585e+01
4.060000000000000000e+02 1.050880664281300447e+01
4.070000000000000000e+02 3.964548007467353585e+01
4.080000000000000000e+02 1.278282198506555645e+01
4.090000000000000000e+02 7.347954072184631258e+00
4.100000000000000000e+02 1.135563323729482299e+01
4.110000000000000000e+02 9.199054180045621365e+01
4.120000000000000000e+02 1.814260465463605101e+02
4.130000000000000000e+02 1.451214742928171653e+01
4.140000000000000000e+02 1.372267604646368966e+02
4.150000000000000000e+02 2.963891122381244827e+02
4.160000000000000000e+02 1.130907722418071728e+02
4.170000000000000000e+02 1.752708006845005428e+01
4.180000000000000000e+02 8.566866233146762966e+01
4.190000000000000000e+02 1.571794567399412585e+02
4.200000000000000000e+02 8.522154376684834176e+01
4.210000000000000000e+02 5.123754372252145117e+01
4.220000000000000000e+02 7.889866583073808215e+01
4.230000000000000000e+02 1.624849756482043972e+02
4.240000000000000000e+02 1.224383986392866177e+02
4.250000000000000000e+02 1.512935972204915629e+02
4.260000000000000000e+02 2.769586833229648164e+02
4.270000000000000000e+02 1.041070027131302425e+02
4.280000000000000000e+02 3.503888411947728514e+02
4.290000000000000000e+02 3.516441329807107650e+02
4.300000000000000000e+02 3.263526841319263099e+02
4.310000000000000000e+02 5.684710073428765327e+02
4.320000000000000000e+02 6.422407502385397038e+02
4.330000000000000000e+02 5.147876767683015942e+02
4.340000000000000000e+02 5.259571036506968085e+02
4.350000000000000000e+02 5.411595088985679922e+02
4.360000000000000000e+02 3.927237883634142008e+02
4.370000000000000000e+02 2.502974413399681168e+02
4.380000000000000000e+02 3.411380255910423784e+02
4.390000000000000000e+02 3.401162432897748431e+02
4.400000000000000000e+02 3.620407376477877506e+02
4.410000000000000000e+02 4.735224611364577640e+02
4.420000000000000000e+02 4.797076518979461071e+02
4.430000000000000000e+02 5.761174358224426442e+02
4.440000000000000000e+02 4.987047731024482573e+02
4.450000000000000000e+02 3.036925126322338429e+02
4.460000000000000000e+02 1.609314060153498644e+02
4.470000000000000000e+02 1.778613138946501238e+02
4.480000000000000000e+02 3.851939622277555486e+02
4.490000000000000000e+02 3.677590654635961300e+02
4.500000000000000000e+02 2.635256692036481923e+02
4.510000000000000000e+02 1.874511880937533022e+02
4.520000000000000000e+02 1.017829755610905238e+02
4.530000000000000000e+02 5.024950110350505383e+02
4.540000000000000000e+02 4.294186876166690467e+02
4.550000000000000000e+02 3.362657234806093811e+02
4.560000000000000000e+02 4.089164379796741855e+02
4.570000000000000000e+02 2.700201420659628866e+02
4.580000000000000000e+02 2.952792552582426993e+02
4.590000000000000000e+02 3.839193115743615294e+02
4.600000000000000000e+02 5.236975221323352798e+02
4.610000000000000000e+02 6.670958182327299255e+02
4.620000000000000000e+02 7.084014220286247792e+02
4.630000000000000000e+02 6.489630738021159004e+02
4.640000000000000000e+02 7.201086716241433123e+02
4.650000000000000000e+02 7.775302404480398764e+02
4.660000000000000000e+02 7.748163853142499420e+02
4.670000000000000000e+02 7.455683326420571575e+02
4.680000000000000000e+02 7.389223092097073504e+02
4.690000000000000000e+02 7.232775390168010290e+02
4.700000000000000000e+02 6.864720264620492571e+02
4.710000000000000000e+02 5.651601867662310497e+02
4.720000000000000000e+02 3.870142736154298291e+02
4.730000000000000000e+02 3.569667655951885195e+02
4.740000000000000000e+02 5.049613733457750868e+02
4.750000000000000000e+02 5.625482561709192169e+02
4.760000000000000000e+02 4.905774547490671011e+02
4.770000000000000000e+02 4.056793700062233370e+02
4.780000000000000000e+02 4.179755538477516552e+02
4.790000000000000000e+02 2.684549006845050485e+02
4.800000000000000000e+02 2.349350409873468664e+02
4.810000000000000000e+02 2.884691372744239288e+02
4.820000000000000000e+02 3.293481774735532781e+02
4.830000000000000000e+02 2.840679195187714186e+02
4.840000000000000000e+02 1.141599560464634067e+02
4.850000000000000000e+02 2.723672766023702252e+02
4.860000000000000000e+02 3.321464829495929507e+02
4.870000000000000000e+02 2.069657979672261945e+02
4.880000000000000000e+02 2.104730523127984441e+02
4.890000000000000000e+02 2.325582093756486586e+02
4.900000000000000000e+02 2.494944092719355524e+02
4.910000000000000000e+02 1.817805220908545607e+02
4.920000000000000000e+02 4.227962444628852268e+01
4.930000000000000000e+02 4.762622113254542455e+01
4.940000000000000000e+02 1.419530462974479974e+02
4.950000000000000000e+02 1.123510485172134565e+02
4.960000000000000000e+02 1.519832189172374797e+02
4.970000000000000000e+02 1.960282291433314583e+02
4.980000000000000000e+02 1.430002518457072824e+02
4.990000000000000000e+02 1.961281963700483288e+02
5.000000000000000000e+02 2.081046891723708541e+02
5.010000000000000000e+02 2.124740324761511658e+02
5.020000000000000000e+02 1.093501334370420039e+02
5.030000000000000000e+02 1.094764405932392393e+01
5.040000000000000000e+02 1.515497620655289381e+02
5.050000000000000000e+02 3.680602963285620604e+02
5.060000000000000000e+02 2.784169534951216747e+02
5.070000000000000000e+02 1.728125701306782958e+02
5.080000000000000000e+02 1.978399346401147909e+02
5.090000000000000000e+02 2.441841330429379866e+02
5.100000000000000000e+02 1.895346970752956679e+02
5.110000000000000000e+02 2.510304610246825234e+02
5.120000000000000000e+02 3.130892202447622026e+02
5.130000000000000000e+02 3.323186665214677191e+02
5.140000000000000000e+02 3.134146709396408710e+02
5.150000000000000000e+02 1.400415745695904377e+02
5.160000000000000000e+02 2.175393034225252720e+01
5.170000000000000000e+02 1.184965899346615572e+02
5.180000000000000000e+02 1.964712753007049457e+02
5.190000000000000000e+02 1.418639456129467362e+02
5.200000000000000000e+02 2.930709521883425168e+02
5.210000000000000000e+02 2.046536865201158548e+02
5.220000000000000000e+02 1.486147688238955311e+02
5.230000000000000000e+02 2.226209896079656687e+02
5.240000000000000000e+02 2.946001557237658517e+02
5.250000000000000000e+02 2.530948735117198964e+02
5.260000000000000000e+02 3.225817213856046237e+02
5.270000000000000000e+02 1.605199430111973129e+02
5.280000000000000000e+02 2.948743667703812434e+02
5.290000000000000000e+02 3.653859069072815942e+02
5.300000000000000000e+02 7.981983650767112692e+01
5.310000000000000000e+02 5.410347138145588275e+01
5.320000000000000000e+02 3.890518046048093037e+00
5.330000000000000000e+02 1.462056955818302697e+02
5.340000000000000000e+02 1.915401251400126625e+02
5.350000000000000000e+02 1.356768920141052774e+02
5.360000000000000000e+02 1.297478419829911616e+02
5.370000000000000000e+02 1.746000323584316902e+02
5.380000000000000000e+02 1.662051812487045765e+02
5.390000000000000000e+02 9.133781141464402253e+01
5.400000000000000000e+02 1.077917719643257186e+02
5.410000000000000000e+02 1.836244174859954796e+02
5.420000000000000000e+02 1.559581046670819831e+02
5.430000000000000000e+02 4.781644757311900662e+01
5.440000000000000000e+02 1.384221187139554559e+02
5.450000000000000000e+02 1.851827350549686457e+02
5.460000000000000000e+02 1.399877445550696393e+02
5.470000000000000000e+02 2.524827653463345030e+02
5.480000000000000000e+02 1.436296986932159392e+01
5.490000000000000000e+02 2.474926874092546996e+02
5.500000000000000000e+02 2.736823451265113363e+02
5.510000000000000000e+02 6.522267351586867790e+01
5.520000000000000000e+02 7.722870263015886394e+01
5.530000000000000000e+02 7.691355220177806018e+01
5.540000000000000000e+02 2.081542851068234654e+02
5.550000000000000000e+02 9.266212991287619616e+01
5.560000000000000000e+02 6.215337380754996133e+01
5.570000000000000000e+02 3.549919717901633476e+01
5.580000000000000000e+02 1.374795143746105737e+02
5.590000000000000000e+02 1.424565706285008275e+02
5.600000000000000000e+02 2.161969423770992194e+02
5.610000000000000000e+02 1.920347683675565804e+02
5.620000000000000000e+02 9.270983618336489940e+01
5.630000000000000000e+02 2.088691847956848733e+02
5.640000000000000000e+02 1.251524613565649986e+02
5.650000000000000000e+02 1.316692354698199381e+02
5.660000000000000000e+02 1.573234038373789474e+02
5.670000000000000000e+02 1.060276686911398372e+02
5.680000000000000000e+02 5.400085383530041128e+01
5.690000000000000000e+02 1.547559934038572749e+02
5.700000000000000000e+02 2.590014298692631201e+01
5.710000000000000000e+02 1.092270416925924366e+02
5.720000000000000000e+02 1.488169128604021694e+02
5.730000000000000000e+02 1.194992981252638060e+02
5.740000000000000000e+02 3.880529441194781981e+01
5.750000000000000000e+02 6.785087894627474725e+01
5.760000000000000000e+02 1.838893340729970305e+02
5.770000000000000000e+02 2.672822649242895636e+02
5.780000000000000000e+02 1.793796561294340393e+02
5.790000000000000000e+02 7.081528907092553027e+01
5.800000000000000000e+02 1.640159137108493610e+02
5.810000000000000000e+02 1.457674243725360839e+02
5.820000000000000000e+02 1.474416130443793520e+02
5.830000000000000000e+02 6.386743749843869722e+01
5.840000000000000000e+02 7.805794871603953311e+01
5.850000000000000000e+02 2.378641063264822719e+02
5.860000000000000000e+02 2.786084350964513874e+02
5.870000000000000000e+02 3.096420477395283797e+02
5.880000000000000000e+02 3.284491187305539484e+02
5.890000000000000000e+02 2.970951323376909272e+02
5.900000000000000000e+02 3.057823730194913878e+02
5.910000000000000000e+02 3.625610496577478443e+02
5.920000000000000000e+02 1.961051059738657329e+02
5.930000000000000000e+02 2.765993996350010775e+01
5.940000000000000000e+02 5.322131059282536825e+01
5.950000000000000000e+02 2.676118683468198469e+02
5.960000000000000000e+02 3.391041519701324205e+02
5.970000000000000000e+02 1.064478854262526539e+02
5.980000000000000000e+02 1.457089896079609161e+02
5.990000000000000000e+02 2.982831666459186977e+02
6.000000000000000000e+02 3.305093167565316321e+02
6.010000000000000000e+02 3.555254685127526386e+02
6.020000000000000000e+02 4.297814070939651856e+02
6.030000000000000000e+02 3.907151614475319548e+02
6.040000000000000000e+02 4.294116237710016435e+02
6.050000000000000000e+02 4.085418008504465774e+02
6.060000000000000000e+02 3.615032300290336025e+02
6.070000000000000000e+02 3.756341799004363793e+02
6.080000000000000000e+02 4.525920973034647545e+02
6.090000000000000000e+02 4.896833849647450165e+02
6.100000000000000000e+02 4.000665340593203041e+02
6.110000000000000000e+02 3.290113556316100585e+02
6.120000000000000000e+02 3.407398829946105820e+02
6.130000000000000000e+02 3.872085386019506927e+02
6.140000000000000000e+02 3.855156482265068121e+02
6.150000000000000000e+02 3.241539892346001466e+02
6.160000000000000000e+02 3.058937055382689323e+02
6.170000000000000000e+02 3.779624969508440131e+02
6.180000000000000000e+02 4.847581739473123434e+02
6.190000000000000000e+02 4.963159407176956393e+02
6.200000000000000000e+02 3.764811656502810138e+02
6.210000000000000000e+02 3.954983359676418218e+02
6.220000000000000000e+02 4.860260964945035198e+02
6.230000000000000000e+02 4.686232283136276351e+02
6.240000000000000000e+02 2.564292592822981192e+02
6.250000000000000000e+02 1.195149561294348501e+02
6.260000000000000000e+02 5.002330150352572105e+02
6.270000000000000000e+02 5.200925367558598964e+02
6.280000000000000000e+02 5.427581634100807833e+02
6.290000000000000000e+02 4.590543833678926831e+02
6.300000000000000000e+02 3.054817920970714908e+02
6.310000000000000000e+02 2.451347789047919719e+02
6.320000000000000000e+02 3.258645142057281987e+02
6.330000000000000000e+02 5.709078234391165552e+02
6.340000000000000000e+02 4.375159458618487633e+02
6.350000000000000000e+02 3.786527781833306676e+02
6.360000000000000000e+02 3.858049192283760362e+02
6.370000000000000000e+02 2.631926340800665116e+02
6.380000000000000000e+02 3.196411629821660085e+02
6.390000000000000000e+02 2.512292099564385808e+02
6.400000000000000000e+02 1.686830856461318433e+02
6.410000000000000000e+02 3.600239921385704065e+02
6.420000000000000000e+02 5.338793369217969484e+02
6.430000000000000000e+02 3.717544322339763312e+02
6.440000000000000000e+02 3.717482336652132631e+02
6.450000000000000000e+02 2.071410444098710570e+02
6.460000000000000000e+02 7.718509229205537281e+01
6.470000000000000000e+02 3.286485204107146956e+02
6.480000000000000000e+02 5.538686034225249841e+02
6.490000000000000000e+02 2.941883261771415619e+02
6.500000000000000000e+02 2.927579399294748441e+02
6.510000000000000000e+02 3.655332402198708337e+02
6.520000000000000000e+02 3.217010733665217117e+02
6.530000000000000000e+02 3.655064950217812907e+02
6.540000000000000000e+02 4.081854121758966016e+02
6.550000000000000000e+02 2.364759379303194464e+02
6.560000000000000000e+02 2.636453671022616732e+02
6.570000000000000000e+02 3.964429434971995647e+02
6.580000000000000000e+02 4.169548002903360384e+02
6.590000000000000000e+02 3.048318676415674418e+02
6.600000000000000000e+02 2.645096091474791251e+02
6.610000000000000000e+02 3.920277124429697437e+02
6.620000000000000000e+02 3.533025757311760913e+02
6.630000000000000000e+02 2.662157052893597893e+02
6.640000000000000000e+02 2.805612191206969328e+02
6.650000000000000000e+02 3.655537036092092649e+02
6.660000000000000000e+02 3.561170013690117457e+02
6.670000000000000000e+02 1.971052336652150814e+02
6.680000000000000000e+02 3.908475031113874820e+02
6.690000000000000000e+02 2.417664221277492231e+02
6.700000000000000000e+02 2.574748632856251334e+02
6.710000000000000000e+02 3.629499344119472539e+02
6.720000000000000000e+02 2.966199114890113719e+02
6.730000000000000000e+02 1.289130952914332511e+02
6.740000000000000000e+02 2.585842579547784226e+02
6.750000000000000000e+02 4.534151072791358956e+02
6.760000000000000000e+02 4.424568093341641202e+02
6.770000000000000000e+02 3.448147860194999339e+02
6.780000000000000000e+02 3.626719284529233391e+02
6.790000000000000000e+02 5.280640950632631530e+02
6.800000000000000000e+02 5.421442957685161446e+02
6.810000000000000000e+02 3.622043615432480692e+02
6.820000000000000000e+02 3.648757381870982499e+02
6.830000000000000000e+02 4.984554102675793388e+02
6.840000000000000000e+02 6.071348800248904354e+02
6.850000000000000000e+02 5.848446652146816405e+02
6.860000000000000000e+02 4.311867626426050037e+02
6.870000000000000000e+02 6.093107525202208308e+02
6.880000000000000000e+02 6.904443296618959494e+02
6.890000000000000000e+02 7.207130968886103801e+02
6.900000000000000000e+02 8.214820057249505680e+02
6.910000000000000000e+02 9.697687157436176904e+02
6.920000000000000000e+02 1.113578660651310429e+03
6.930000000000000000e+02 1.366416584111173051e+03
6.940000000000000000e+02 1.881732607342860319e+03
6.950000000000000000e+02 2.388534481957683965e+03
6.960000000000000000e+02 2.687795172163451298e+03
6.970000000000000000e+02 2.842715292055588179e+03
6.980000000000000000e+02 3.195274321858150870e+03
6.990000000000000000e+02 3.584557266334792530e+03
7.000000000000000000e+02 4.022639566272564934e+03
7.010000000000000000e+02 4.550106483201970150e+03
7.020000000000000000e+02 5.065188679319626317e+03
7.030000000000000000e+02 5.476313918481656401e+03
7.040000000000000000e+02 5.765499193280787949e+03
7.050000000000000000e+02 5.925966116573321415e+03
7.060000000000000000e+02 5.926929839659824211e+03
7.070000000000000000e+02 5.531735378552187285e+03
7.080000000000000000e+02 4.931928719352851658e+03
7.090000000000000000e+02 4.227765019498059701e+03
7.100000000000000000e+02 3.387328104127780989e+03
7.110000000000000000e+02 2.792391543663146422e+03
7.120000000000000000e+02 2.312683876789053556e+03
7.130000000000000000e+02 1.895872788425633416e+03
7.140000000000000000e+02 1.520458932171744891e+03
7.150000000000000000e+02 1.316868024061397819e+03
7.160000000000000000e+02 1.305911460485373937e+03
7.170000000000000000e+02 1.132382882389539191e+03
7.180000000000000000e+02 8.941281121344046596e+02
7.190000000000000000e+02 6.692451377307716029e+02
7.200000000000000000e+02 6.461542501970594685e+02
7.210000000000000000e+02 5.441117703857152037e+02
7.220000000000000000e+02 3.038322441194684984e+02
7.230000000000000000e+02 4.801270331259073032e+02
7.240000000000000000e+02 4.170270396930759489e+02
7.250000000000000000e+02 3.752645387056628010e+02
7.260000000000000000e+02 4.069838628500300501e+02
7.270000000000000000e+02 3.871221745748658805e+02
7.280000000000000000e+02 2.415399439950208489e+02
7.290000000000000000e+02 1.431505979672269575e+02
7.300000000000000000e+02 3.917187945250969392e+02
7.310000000000000000e+02 1.104293791599159817e+02
7.320000000000000000e+02 1.315299828251460781e+02
7.330000000000000000e+02 1.980307264413096959e+02
7.340000000000000000e+02 1.007634907176879864e+02
7.350000000000000000e+02 4.598207423771479085e+01
7.360000000000000000e+02 1.978007478531366985e+02
7.370000000000000000e+02 2.726845444098706253e+02
7.380000000000000000e+02 7.314274986727207306e+01
7.390000000000000000e+02 4.876420495333113081e+01
7.400000000000000000e+02 3.667004110327532374e+01
7.410000000000000000e+02 7.109388748599877772e+01
7.420000000000000000e+02 7.865298170504022579e+00
7.430000000000000000e+02 3.161581529655813938e+01
7.440000000000000000e+02 4.548937706907246081e+01
7.450000000000000000e+02 1.304291357311808781e+02
7.460000000000000000e+02 1.693309739527120712e+02
7.470000000000000000e+02 8.878155661059437875e+00
7.480000000000000000e+02 6.169414591370981782e+01
7.490000000000000000e+02 1.519512653598789882e+02
7.500000000000000000e+02 1.821310588674508040e+02
7.510000000000000000e+02 3.972927759436046813e+01
7.520000000000000000e+02 3.444151487036064196e+01
7.530000000000000000e+02 2.289081427712227779e+01
7.540000000000000000e+02 4.045508865616546501e+01
7.550000000000000000e+02 1.367506156813942653e+02
7.560000000000000000e+02 1.130209014270883330e+02
7.570000000000000000e+02 4.878521038573165924e+01
7.580000000000000000e+02 3.107759858950276310e+01
7.590000000000000000e+02 8.507628733665424647e+01
7.600000000000000000e+02 2.433688488801345784e+02
7.610000000000000000e+02 1.131219759759319885e+02
7.620000000000000000e+02 3.843833482265023349e+01
7.630000000000000000e+02 1.400904183157054774e+02
7.640000000000000000e+02 3.290756497821966065e+01
7.650000000000000000e+02 1.903424192698690831e+02
7.660000000000000000e+02 3.048967929060467554e+02
7.670000000000000000e+02 4.915229594482092779e+01
7.680000000000000000e+02 1.640129858743002700e+01
7.690000000000000000e+02 5.463104464841144647e+01
7.700000000000000000e+02 3.533591894212783018e+02
7.710000000000000000e+02 1.015089135117265755e+02
7.720000000000000000e+02 4.734085174445023370e+01
7.730000000000000000e+02 1.371710527069071190e+02
7.740000000000000000e+02 2.871498581621295898e+00
7.750000000000000000e+02 1.292923081269665531e+01
7.760000000000000000e+02 1.534469415681407725e+02
7.770000000000000000e+02 2.089716601410204078e+02
7.780000000000000000e+02 2.368441985687620104e+02
7.790000000000000000e+02 1.469529473428728465e+02
7.800000000000000000e+02 2.838625051845769320e+01
7.810000000000000000e+02 1.118167008504474325e+02
7.820000000000000000e+02 1.839839242688240120e+02
7.830000000000000000e+02 1.335524064496052290e+02
7.840000000000000000e+02 1.709722578095840788e+02
7.850000000000000000e+02 1.886325660858742594e+02
7.860000000000000000e+02 1.186983551223543145e+02
7.870000000000000000e+02 1.189529156938396852e+02
7.880000000000000000e+02 3.096015076954985261e+02
7.890000000000000000e+02 7.608850772038952925e+01
7.900000000000000000e+02 1.591127817257832646e+02
7.910000000000000000e+02 1.364811562538899068e+02
7.920000000000000000e+02 6.768814826384547700e+01
7.930000000000000000e+02 4.792819711263224036e+01
7.940000000000000000e+02 1.710999434972060840e+01
7.950000000000000000e+02 1.022994239473129241e+01
7.960000000000000000e+02 1.301065679029240414e+02
7.970000000000000000e+02 2.422138746940454439e+02
7.980000000000000000e+02 3.763219855631613768e+02
7.990000000000000000e+02 4.203322478324000713e+02
8.000000000000000000e+02 3.846823799626638447e+02
8.010000000000000000e+02 3.860617427504666352e+02
8.020000000000000000e+02 4.430231700684507814e+02
8.030000000000000000e+02 3.966824736623796070e+02
8.040000000000000000e+02 5.854453776602352946e+02
8.050000000000000000e+02 6.359591715619158094e+02
8.060000000000000000e+02 7.075579047490626863e+02
8.070000000000000000e+02 9.570615332088750620e+02
8.080000000000000000e+02 1.110082388716034984e+03
8.090000000000000000e+02 1.057338990460389141e+03
8.100000000000000000e+02 1.323500350342248112e+03
8.110000000000000000e+02 1.499505481642810537e+03
8.120000000000000000e+02 1.398864131065951142e+03
8.130000000000000000e+02 1.313897137523335232e+03
8.140000000000000000e+02 1.387404988799001785e+03
8.150000000000000000e+02 1.412297144368390718e+03
8.160000000000000000e+02 1.074328399004360790e+03
8.170000000000000000e+02 6.201693632026584737e+02
8.180000000000000000e+02 4.701229351171955386e+02
8.190000000000000000e+02 5.239817982576237227e+02
8.200000000000000000e+02 4.449706048122765196e+02
8.210000000000000000e+02 3.516571871395935318e+02
8.220000000000000000e+02 5.210763447002693738e+02
8.230000000000000000e+02 3.632407661480951901e+02
8.240000000000000000e+02 1.491664257000661564e+02
8.250000000000000000e+02 2.389577654221051262e+02
8.260000000000000000e+02 3.221052218626840613e+02
8.270000000000000000e+02 3.446570192491173543e+02
8.280000000000000000e+02 3.606886035469821081e+02
8.290000000000000000e+02 3.262487601202830092e+02
8.300000000000000000e+02 3.290390990665821391e+02
8.310000000000000000e+02 4.297149024268819062e+02
8.320000000000000000e+02 3.516257230609717794e+02
8.330000000000000000e+02 3.633979629122595156e+02
8.340000000000000000e+02 3.908166066168839734e+02
8.350000000000000000e+02 3.813343339900475257e+02
8.360000000000000000e+02 4.779569028832192430e+02
8.370000000000000000e+02 4.385605595519605799e+02
8.380000000000000000e+02 6.021911736623728757e+02
8.390000000000000000e+02 6.710104923667286130e+02
8.400000000000000000e+02 5.708406492636299845e+02
8.410000000000000000e+02 4.756081330775634797e+02
8.420000000000000000e+02 4.865064578095799561e+02
8.430000000000000000e+02 5.813787241028754806e+02
8.440000000000000000e+02 6.653415790292536940e+02
8.450000000000000000e+02 2.851082311138824252e+02
8.460000000000000000e+02 2.741624220908503275e+02
8.470000000000000000e+02 1.612547704853765254e+02
8.480000000000000000e+02 3.086380501970543477e+01
8.490000000000000000e+02 1.929146694461720699e+02
8.500000000000000000e+02 3.860412392449686649e+02
8.510000000000000000e+02 1.257880720597329685e+02
8.520000000000000000e+02 6.212890868077338524e+01
8.530000000000000000e+02 1.862999015557080895e+02
8.540000000000000000e+02 2.650841236258008848e+02
8.550000000000000000e+02 1.877969084197397365e+02
8.560000000000000000e+02 1.030279492034898681e+02
8.570000000000000000e+02 1.203906087949028425e+01
8.580000000000000000e+02 6.500968898381863426e+01
8.590000000000000000e+02 1.444733475420026991e+02
8.600000000000000000e+02 4.055133146857541249e+01
8.610000000000000000e+02 5.952306584819266533e+01
8.620000000000000000e+02 7.110849412984964601e+01
8.630000000000000000e+02 6.557492685334878502e+01
8.640000000000000000e+02 2.112421557652435240e+02
8.650000000000000000e+02 2.835718963907906982e+02
8.660000000000000000e+02 2.747505341215514818e+02
8.670000000000000000e+02 3.723928006636281225e+02
8.680000000000000000e+02 2.313645369425344143e+02
8.690000000000000000e+02 7.378061789669908421e+01
8.700000000000000000e+02 1.974358555071906807e+01
8.710000000000000000e+02 4.143642397842470615e+01
8.720000000000000000e+02 7.785069049990201506e+01
8.730000000000000000e+02 2.247805364447241629e+02
8.740000000000000000e+02 3.851375389545508199e+01
8.750000000000000000e+02 1.467565015038418892e+02
8.760000000000000000e+02 2.139039877618757544e+02
8.770000000000000000e+02 2.396730577473541075e+02
8.780000000000000000e+02 2.258010355942770957e+02
8.790000000000000000e+02 1.584363808338524677e+02
8.800000000000000000e+02 3.052475711263257381e+02
8.810000000000000000e+02 1.342178998962822050e+02
8.820000000000000000e+02 2.719855048942370672e+02
8.830000000000000000e+02 2.708424678075052725e+02
8.840000000000000000e+02 2.061613714996877889e+02
8.850000000000000000e+02 2.021252263790970005e+02
8.860000000000000000e+02 2.528263080273772232e+02
8.870000000000000000e+02 2.728791765401339262e+02
8.880000000000000000e+02 1.550315615512205909e+02
8.890000000000000000e+02 1.190471176104533271e+02
8.900000000000000000e+02 2.949910200373325324e+02
8.910000000000000000e+02 3.371623875362922718e+02
8.920000000000000000e+02 2.791191144575812473e+02
8.930000000000000000e+02 2.506358194150590464e+02
8.940000000000000000e+02 1.660981092907474874e+02
8.950000000000000000e+02 6.583831399087659975e+01
8.960000000000000000e+02 4.246233386227169859e+01
8.970000000000000000e+02 1.573989957685149648e+02
8.980000000000000000e+02 1.957947352831369585e+02
8.990000000000000000e+02 2.698303082970354581e+02
9.000000000000000000e+02 3.628000020327753532e+02
9.010000000000000000e+02 2.666568694046794690e+02
9.020000000000000000e+02 2.914194970130758833e+01
9.030000000000000000e+02 2.503125797759778379e+02
9.040000000000000000e+02 1.407120550715591207e+02
9.050000000000000000e+02 1.467854475627468673e+02
9.060000000000000000e+02 1.110981222153081944e+02
9.070000000000000000e+02 2.339818567517103247e+02
9.080000000000000000e+02 3.593332590956233048e+02
9.090000000000000000e+02 2.184475559427477549e+02
9.100000000000000000e+02 1.439902511304727568e+02
9.110000000000000000e+02 3.681963452509335184e+02
9.120000000000000000e+02 3.851736581207206882e+02
9.130000000000000000e+02 2.077353622484956759e+02
9.140000000000000000e+02 3.536830400041494045e+02
9.150000000000000000e+02 6.061811921593042598e+02
9.160000000000000000e+02 5.780441469819537588e+02
9.170000000000000000e+02 4.625636168809625701e+02
9.180000000000000000e+02 5.878923611491399015e+02
9.190000000000000000e+02 6.004777795063266694e+02
9.200000000000000000e+02 3.430154507258378658e+02
9.210000000000000000e+02 5.878964972619802438e+02
9.220000000000000000e+02 4.609311944409901685e+02
9.230000000000000000e+02 2.871722280439763608e+02
9.240000000000000000e+02 3.837234927815809442e+02
9.250000000000000000e+02 1.649503948973240028e+02
9.260000000000000000e+02 1.882452329807097726e+02
9.270000000000000000e+02 2.529540879485587936e+02
9.280000000000000000e+02 5.968107067828470491e+01
9.290000000000000000e+02 2.911497785936531102e+01
9.300000000000000000e+02 8.178376761667685457e+01
9.310000000000000000e+02 6.536196641775693195e+01
9.320000000000000000e+02 9.710088769134983977e+01
9.330000000000000000e+02 2.333078411118017925e+02
9.340000000000000000e+02 1.457591782202885895e+02
9.350000000000000000e+02 8.020259838207876157e+01
9.360000000000000000e+02 8.866033688031554050e+01
9.370000000000000000e+02 2.861587367482461630e+01
9.380000000000000000e+02 1.013615330325671664e+02
9.390000000000000000e+02 2.430615983820787278e+02
9.400000000000000000e+02 2.364329317295752162e+02
9.410000000000000000e+02 1.461746485583906008e+02
9.420000000000000000e+02 1.211969973159065432e+02
9.430000000000000000e+02 5.390710266071867096e+01
9.440000000000000000e+02 3.867620328562811238e+01
9.450000000000000000e+02 3.170192456958997127e+02
9.460000000000000000e+02 4.017739493156400954e+02
9.470000000000000000e+02 3.065291498236878169e+02
9.480000000000000000e+02 4.159476637212151218e+02
9.490000000000000000e+02 5.267666683948556283e+02
9.500000000000000000e+02 4.394697798382073302e+02
9.510000000000000000e+02 4.981338278365458336e+02
9.520000000000000000e+02 6.229149769342460559e+02
9.530000000000000000e+02 6.476419308027379884e+02
9.540000000000000000e+02 6.760437537232937757e+02
9.550000000000000000e+02 8.058767991288156054e+02
9.560000000000000000e+02 1.044827328064724725e+03
9.570000000000000000e+02 1.160115753578090562e+03
9.580000000000000000e+02 6.724822220286339416e+02
9.590000000000000000e+02 7.153511757726540736e+02
9.600000000000000000e+02 9.300870584318679448e+02
9.610000000000000000e+02 7.447825469404804153e+02
9.620000000000000000e+02 8.302383459240650154e+02
9.630000000000000000e+02 7.676725082538658853e+02
9.640000000000000000e+02 3.736261747562736559e+02
9.650000000000000000e+02 4.585452366106564455e+02
9.660000000000000000e+02 5.552807084404864781e+02
9.670000000000000000e+02 2.833042703795903208e+02
9.680000000000000000e+02 3.105861067413391652e+02
9.690000000000000000e+02 4.003753973455000050e+02
9.700000000000000000e+02 4.852141901265310935e+02
9.710000000000000000e+02 3.998218762912225657e+02
9.720000000000000000e+02 2.248023658647836385e+02
9.730000000000000000e+02 1.509421330844194529e+02
9.740000000000000000e+02 9.213874146442559265e+01
9.750000000000000000e+02 1.466491062629573321e+02
9.760000000000000000e+02 3.270876875544390714e+02
9.770000000000000000e+02 2.782477026965336222e+02
9.780000000000000000e+02 3.905906192905986245e+02
9.790000000000000000e+02 3.312332220908639897e+02
9.800000000000000000e+02 6.004093919353405084e+01
9.810000000000000000e+02 4.279812829806809305e+01
9.820000000000000000e+02 2.644139276913495564e+02
9.830000000000000000e+02 2.581880786558805312e+02
9.840000000000000000e+02 3.036752230035264120e+02
9.850000000000000000e+02 1.672375847541989629e+02
9.860000000000000000e+02 1.395032537232943923e+02
9.870000000000000000e+02 2.143699916822261287e+02
9.880000000000000000e+02 2.846843604646360291e+02
9.890000000000000000e+02 2.442760551337860306e+02
9.900000000000000000e+02 1.042147269446260509e+02
9.910000000000000000e+02 2.626593616054797167e+02
9.920000000000000000e+02 3.367141808378297014e+02
9.930000000000000000e+02 4.140988652769144096e+02
9.940000000000000000e+02 2.921818249533235985e+02
9.950000000000000000e+02 3.394997541684005569e+02
9.960000000000000000e+02 2.017040327318080699e+02
9.970000000000000000e+02 3.660719647168601654e+01
9.980000000000000000e+02 2.350073343011183624e+02
9.990000000000000000e+02 3.806139429993776275e+02
1.000000000000000000e+03 2.210956879070729997e+02
1.001000000000000000e+03 3.524714647302881190e+02
1.002000000000000000e+03 1.243836178423225505e+02
1.003000000000000000e+03 4.860169263485845192e+01
1.004000000000000000e+03 3.811972392116227866e+02
1.005000000000000000e+03 2.751124016597543118e+02
1.006000000000000000e+03 2.015911347826507694e+01
1.007000000000000000e+03 1.268789995850633261e+02
1.008000000000000000e+03 1.596687755186717652e+02
1.009000000000000000e+03 1.972303373444022725e+02
1.010000000000000000e+03 3.762992141078806299e+02
1.011000000000000000e+03 2.824261829875528065e+02
1.012000000000000000e+03 1.819300228215765287e+02
1.013000000000000000e+03 6.225241325726466357e+01
1.014000000000000000e+03 2.625384747302977075e+02
1.015000000000000000e+03 5.900176008298752777e+02
1.016000000000000000e+03 3.518397265560078608e+02
1.017000000000000000e+03 3.604275190871387053e+02
1.018000000000000000e+03 1.886772987551889003e+02
1.019000000000000000e+03 3.468440035269746886e+02
1.020000000000000000e+03 4.550604516597502993e+02
1.021000000000000000e+03 4.240007080912842525e+02
1.022000000000000000e+03 4.065272157676338338e+02
1.023000000000000000e+03 4.700769771784241016e+02
1.024000000000000000e+03 4.314694165975088254e+02
1.025000000000000000e+03 2.307280385892091772e+02
1.026000000000000000e+03 2.769701556016604513e+02
1.027000000000000000e+03 8.358780952381421514e+01
1.028000000000000000e+03 3.487574641078762738e+01
1.029000000000000000e+03 1.814557652489946520e+02
1.030000000000000000e+03 3.688617085064313983e+01
1.031000000000000000e+03 3.697043995850689839e+02
1.032000000000000000e+03 4.029267825725792704e+02
1.033000000000000000e+03 1.614633688796331228e+02
1.034000000000000000e+03 4.105805601659780564e+02
1.035000000000000000e+03 2.484595310558977417e+02
1.036000000000000000e+03 2.711407763485486271e+02
1.037000000000000000e+03 2.817605703319504187e+02
1.038000000000000000e+03 3.242946062240667402e+02
1.039000000000000000e+03 1.378248189833774688e+02
1.040000000000000000e+03 9.600767825724830118e+01
1.041000000000000000e+03 2.261564419087131910e+02
1.042000000000000000e+03 2.102729946058072414e+02
1.043000000000000000e+03 2.000499651452303738e+02
1.044000000000000000e+03 3.169411352697060806e+02
1.045000000000000000e+03 3.832057831950172044e+02
1.046000000000000000e+03 2.006304159751039435e+02
1.047000000000000000e+03 3.572540695652005525e+02
1.048000000000000000e+03 4.104367958506218201e+02
1.049000000000000000e+03 3.438820639004136410e+02
1.050000000000000000e+03 3.226097058091282292e+02
1.051000000000000000e+03 2.897674767634872524e+02
1.052000000000000000e+03 2.362659348547693696e+02
1.053000000000000000e+03 1.412401755186567129e+02
1.054000000000000000e+03 7.037344265559210044e+01
1.055000000000000000e+03 3.847627244813283198e+01
1.056000000000000000e+03 2.240910130434947405e+02
1.057000000000000000e+03 3.170252605809087072e+02
1.058000000000000000e+03 3.895386742738565431e+02
1.059000000000000000e+03 4.620734858921173895e+02
1.060000000000000000e+03 4.798413887966806328e+02
1.061000000000000000e+03 4.792548520746897225e+02
1.062000000000000000e+03 4.661056688796682010e+02
1.063000000000000000e+03 4.933795275933641733e+02
1.064000000000000000e+03 5.381725855072440936e+02
1.065000000000000000e+03 4.989047692946057850e+02
1.066000000000000000e+03 7.013531759336257210e+02
1.067000000000000000e+03 7.388949597510447802e+02
1.068000000000000000e+03 6.461974497925331207e+02
1.069000000000000000e+03 5.143349763485413177e+02
1.070000000000000000e+03 3.447941800829802332e+02
1.071000000000000000e+03 4.281487012448114911e+02
1.072000000000000000e+03 4.390045202898549519e+02
1.073000000000000000e+03 4.168414941908615106e+02
1.074000000000000000e+03 2.332095958506348836e+02
1.075000000000000000e+03 2.176825655601595884e+02
1.076000000000000000e+03 5.286403838509423849e+02
1.077000000000000000e+03 5.304962226141093424e+02
1.078000000000000000e+03 3.569075404564296150e+02
1.079000000000000000e+03 3.989710282157676033e+02
1.080000000000000000e+03 4.649008587137013251e+02
1.081000000000000000e+03 5.226420821576913340e+02
1.082000000000000000e+03 1.015649880912956746e+02
1.083000000000000000e+03 2.193522024896335836e+02
1.084000000000000000e+03 1.465998892116053867e+02
1.085000000000000000e+03 1.914464970954325338e+02
1.086000000000000000e+03 2.084075139004145854e+02
1.087000000000000000e+03 2.393519578838236157e+02
1.088000000000000000e+03 1.842732105809376151e+02
1.089000000000000000e+03 1.575142634854730161e+01
1.090000000000000000e+03 7.778588672199552434e+01
1.091000000000000000e+03 1.741083892116173786e+02
1.092000000000000000e+03 2.948117867219885966e+02
1.093000000000000000e+03 2.454385757763959646e+02
1.094000000000000000e+03 2.010958072614081686e+02
1.095000000000000000e+03 1.602497095435722372e+02
1.096000000000000000e+03 9.474884844398489747e+01
1.097000000000000000e+03 1.107368742029029391e+02
1.098000000000000000e+03 1.963823796680456724e+02
1.099000000000000000e+03 1.690538887966924335e+02
1.100000000000000000e+03 1.130546636514685410e+01
1.101000000000000000e+03 1.512213035269795682e+02
1.102000000000000000e+03 2.770365551867284353e+02
1.103000000000000000e+03 8.219220068464808548e+01
1.104000000000000000e+03 1.416717408713765849e+02
1.105000000000000000e+03 1.921539333333332706e+02
1.106000000000000000e+03 1.543860406639019232e+02
1.107000000000000000e+03 1.218078431535265196e+02
1.108000000000000000e+03 1.818793535269834081e+02
1.109000000000000000e+03 2.726393228215733870e+02
1.110000000000000000e+03 2.083481178423223525e+02
1.111000000000000000e+03 7.099860622393961762e+00
1.112000000000000000e+03 5.281042531120377959e+01
1.113000000000000000e+03 2.576004471428710829e+01
1.114000000000000000e+03 7.460227493776697827e+01
1.115000000000000000e+03 2.758423236514599921e+02
1.116000000000000000e+03 3.504300219917049617e+02
1.117000000000000000e+03 1.203959373498921224e+02
1.118000000000000000e+03 1.240024863070853343e+02
1.119000000000000000e+03 3.608844385892110154e+02
1.120000000000000000e+03 3.166798939834025646e+02
1.121000000000000000e+03 3.746779634854804613e+02
1.122000000000000000e+03 4.482012999999973886e+02
1.123000000000000000e+03 3.385102879668089599e+02
1.124000000000000000e+03 4.418074883817455429e+02
1.125000000000000000e+03 6.419838817427316826e+02
1.126000000000000000e+03 3.439217203319795431e+02
1.127000000000000000e+03 1.477689713692942348e+02
1.128000000000000000e+03 9.079094522612849971e+01
1.129000000000000000e+03 7.629839524896298997e+01
1.130000000000000000e+03 3.335140190871619836e+01
1.131000000000000000e+03 1.106947507883865143e+02
1.132000000000000000e+03 2.338012863070613037e+02
1.133000000000000000e+03 2.653606161825687764e+02
1.134000000000000000e+03 3.630621254658387329e+02
1.135000000000000000e+03 2.841215510373344273e+02
1.136000000000000000e+03 2.356480466804982825e+02
1.137000000000000000e+03 2.298892045643157473e+02
1.138000000000000000e+03 2.342052819502077625e+02
1.139000000000000000e+03 2.133633614107814651e+02
1.140000000000000000e+03 8.958839087138187551e+01
1.141000000000000000e+03 5.443714456431561644e+01
1.142000000000000000e+03 3.293945327122230537e+02
1.143000000000000000e+03 3.562311898340285552e+02
1.144000000000000000e+03 3.292937350622391932e+02
1.145000000000000000e+03 4.941444417012493204e+02
1.146000000000000000e+03 2.457759167701938452e+02
1.147000000000000000e+03 1.753807734439774606e+02
1.148000000000000000e+03 3.622466697095471204e+02
1.149000000000000000e+03 5.829710738589386665e+02
1.150000000000000000e+03 6.347835385892162776e+02
1.151000000000000000e+03 3.704903790890294886e+02
1.152000000000000000e+03 5.808084802905924704e+01
1.153000000000000000e+03 2.775789470954269405e+02
1.154000000000000000e+03 1.656115047717805453e+02
1.155000000000000000e+03 2.792288331950217071e+02
1.156000000000000000e+03 1.789787585062219648e+02
1.157000000000000000e+03 3.211330195020591418e+02
1.158000000000000000e+03 2.585973149377625191e+02
1.159000000000000000e+03 4.136869794606120649e+02
1.160000000000000000e+03 5.744954018672219718e+02
1.161000000000000000e+03 3.780067029045726485e+02
1.162000000000000000e+03 2.237013804979233669e+02
1.163000000000000000e+03 2.141366385093183737e+02
1.164000000000000000e+03 2.585143232365112453e+02
1.165000000000000000e+03 3.433750000000000000e+02
1.166000000000000000e+03 2.877332946058052698e+02
1.167000000000000000e+03 2.535931242235930370e+02
1.168000000000000000e+03 4.203249300829835420e+02
1.169000000000000000e+03 5.262491923236536877e+02
1.170000000000000000e+03 6.462689995850641935e+02
1.171000000000000000e+03 4.420887028985820280e+02
1.172000000000000000e+03 2.077719477178455634e+02
1.173000000000000000e+03 2.812875643153377609e+02
1.174000000000000000e+03 1.239922282157708509e+02
1.175000000000000000e+03 2.043646942028974820e+02
1.176000000000000000e+03 2.312291831950207097e+02
1.177000000000000000e+03 1.451266051867267493e+02
1.178000000000000000e+03 3.677536074688655958e+02
1.179000000000000000e+03 4.168330505175969734e+02
1.180000000000000000e+03 1.582158961410615348e+02
1.181000000000000000e+03 9.677811473029358069e+00
1.182000000000000000e+03 2.232295522821510474e+02
1.183000000000000000e+03 4.115129585062173874e+02
1.184000000000000000e+03 2.495237912863235294e+02
1.185000000000000000e+03 1.095466201659797605e+02
1.186000000000000000e+03 9.500852095435971023e+01
1.187000000000000000e+03 2.892045329875661537e+02
1.188000000000000000e+03 3.958400809128592641e+02
1.189000000000000000e+03 3.928125199170124802e+02
1.190000000000000000e+03 2.786013846472959585e+02
1.191000000000000000e+03 2.927904879667983664e+02
1.192000000000000000e+03 4.893504491701230563e+02
1.193000000000000000e+03 3.824027582987465053e+02
1.194000000000000000e+03 4.439760051867471020e+02
1.195000000000000000e+03 6.154959020747081695e+02
1.196000000000000000e+03 3.518939755693587585e+02
1.197000000000000000e+03 2.041486178423268427e+02
1.198000000000000000e+03 1.609410287967119757e+02
1.199000000000000000e+03 1.167488261410794337e+02
1.200000000000000000e+03 2.572115111801380749e+02
1.201000000000000000e+03 3.322586504149404050e+02
1.202000000000000000e+03 1.475853358921274889e+02
1.203000000000000000e+03 1.398236344398344784e+02
1.204000000000000000e+03 2.580092594203029535e+02
1.205000000000000000e+03 1.345886941908908341e+02
1.206000000000000000e+03 1.760046655601603618e+02
1.207000000000000000e+03 2.827482502074564081e+02
1.208000000000000000e+03 1.210673238095353383e+02
1.209000000000000000e+03 2.301116047717853235e+02
1.210000000000000000e+03 2.059865435684653221e+02
1.211000000000000000e+03 2.763756483402597723e+02
1.212000000000000000e+03 3.910193624481316874e+02
1.213000000000000000e+03 2.664334717842326086e+02
1.214000000000000000e+03 2.551267236514537160e+02
1.215000000000000000e+03 1.662226331950264466e+02
1.216000000000000000e+03 9.560886049792674157e+01
1.217000000000000000e+03 1.144234468672214859e+02
1.218000000000000000e+03 2.094621738589327151e+02
1.219000000000000000e+03 3.326033375518599655e+02
1.220000000000000000e+03 4.620277844398322031e+02
1.221000000000000000e+03 4.234198481327356376e+02
1.222000000000000000e+03 4.528459145227169103e+01
1.223000000000000000e+03 5.139133643153655839e+01
1.224000000000000000e+03 1.098722199170100993e+02
1.225000000000000000e+03 1.142444277432710038e+02
1.226000000000000000e+03 1.155479166182447415e+02
1.227000000000000000e+03 5.458341147302866148e+01
1.228000000000000000e+03 1.590747923651671272e+02
1.229000000000000000e+03 2.527475637681183116e+02
1.230000000000000000e+03 2.390373784232358787e+02
1.231000000000000000e+03 1.569246688796608851e+02
1.232000000000000000e+03 3.832106066389616217e+01
1.233000000000000000e+03 4.766202022821799034e+01
1.234000000000000000e+03 2.273413657676439925e+01
1.235000000000000000e+03 9.726801460582134951e+01
1.236000000000000000e+03 2.124663261410841244e+02
1.237000000000000000e+03 1.847231975155243049e+02
1.238000000000000000e+03 5.387572311203352911e+02
1.239000000000000000e+03 2.102566106224036275e+02
1.240000000000000000e+03 7.137509834024537270e+01
1.241000000000000000e+03 2.578088449275421112e+02
1.242000000000000000e+03 2.404781865145029087e+02
1.243000000000000000e+03 2.505001275933506122e+02
1.244000000000000000e+03 1.520313906639043751e+02
1.245000000000000000e+03 8.897769478839050805e+01
1.246000000000000000e+03 4.034898165975111510e+02
1.247000000000000000e+03 4.322515141078795864e+02
1.248000000000000000e+03 5.068284149377565768e+02
1.249000000000000000e+03 3.452463576763234414e+02
1.250000000000000000e+03 8.059733477179203476e+01
1.251000000000000000e+03 5.395675570539452082e+01
1.252000000000000000e+03 1.925788213693051603e+02
1.253000000000000000e+03 4.002673313278015712e+02
1.254000000000000000e+03 3.816929510373467451e+02
1.255000000000000000e+03 3.862507709543606893e+02
1.256000000000000000e+03 3.987632124481283427e+02
1.257000000000000000e+03 2.481287987552027516e+02
1.258000000000000000e+03 1.603154524896270061e+02
1.259000000000000000e+03 2.381200074688840687e+02
1.260000000000000000e+03 2.509157099585058859e+02
1.261000000000000000e+03 2.396261126556053114e+02
1.262000000000000000e+03 2.219476439834203916e+02
1.263000000000000000e+03 5.056330120331916760e+02
1.264000000000000000e+03 2.995241908713799717e+02
1.265000000000000000e+03 2.283534215767639921e+02
1.266000000000000000e+03 4.040553420290014515e+02
1.267000000000000000e+03 4.819580848547738015e+02
1.268000000000000000e+03 2.319785012448175223e+02
1.269000000000000000e+03 2.653614983402636085e+02
1.270000000000000000e+03 2.912072515528061558e+02
1.271000000000000000e+03 4.132703726140953222e+02
1.272000000000000000e+03 5.934902448132762629e+02
1.273000000000000000e+03 3.497737697095307112e+02
1.274000000000000000e+03 3.308033434782286690e+02
1.275000000000000000e+03 5.323556112033184036e+02
1.276000000000000000e+03 2.107937180498111616e+02
1.277000000000000000e+03 5.390556124481300913e+02
1.278000000000000000e+03 3.798974410788406999e+02
1.279000000000000000e+03 5.140540950207548576e+02
1.280000000000000000e+03 6.104432717842332750e+02
1.281000000000000000e+03 2.351989178423553142e+02
1.282000000000000000e+03 4.972620431535258234e+01
1.283000000000000000e+03 2.593505512448386980e+02
1.284000000000000000e+03 4.974680450207310969e+02
1.285000000000000000e+03 4.365176946058157341e+02
1.286000000000000000e+03 3.601987765560185721e+02
1.287000000000000000e+03 3.308439676349058800e+02
1.288000000000000000e+03 3.046378738588851576e+01
1.289000000000000000e+03 4.949062939419511054e+01
1.290000000000000000e+03 4.338673165975221195e+02
1.291000000000000000e+03 4.539256802904710071e+02
1.292000000000000000e+03 2.198892205394213022e+02
1.293000000000000000e+03 1.654512697095414069e+02
1.294000000000000000e+03 4.829192997925412101e+01
1.295000000000000000e+03 2.605003279502972191e+02
1.296000000000000000e+03 1.201163192945979006e+02
1.297000000000000000e+03 1.952911701245099323e+02
1.298000000000000000e+03 2.437097863070645474e+02
1.299000000000000000e+03 1.393452925465838348e+02
1.300000000000000000e+03 2.470132226141208491e+02
1.301000000000000000e+03 2.827601012448490110e+02
1.302000000000000000e+03 9.975022103733803647e+01
1.303000000000000000e+03 1.757949952380927527e+02
1.304000000000000000e+03 4.942219744812922499e+01
1.305000000000000000e+03 7.052648298756782896e-01
1.306000000000000000e+03 0.000000000000000000e+00
1.307000000000000000e+03 0.000000000000000000e+00
1.308000000000000000e+03 0.000000000000000000e+00
1.309000000000000000e+03 0.000000000000000000e+00
1.310000000000000000e+03 0.000000000000000000e+00
1.311000000000000000e+03 0.000000000000000000e+00
1.312000000000000000e+03 0.000000000000000000e+00
1.313000000000000000e+03 0.000000000000000000e+00
1.314000000000000000e+03 0.000000000000000000e+00
1.315000000000000000e+03 0.000000000000000000e+00
1.316000000000000000e+03 0.000000000000000000e+00
1.317000000000000000e+03 0.000000000000000000e+00
1.318000000000000000e+03 0.000000000000000000e+00
1.319000000000000000e+03 0.000000000000000000e+00
1.320000000000000000e+03 0.000000000000000000e+00
1.321000000000000000e+03 0.000000000000000000e+00
1.322000000000000000e+03 0.000000000000000000e+00
1.323000000000000000e+03 0.000000000000000000e+00
1.324000000000000000e+03 0.000000000000000000e+00
1.325000000000000000e+03 0.000000000000000000e+00
1.326000000000000000e+03 0.000000000000000000e+00
1.327000000000000000e+03 0.000000000000000000e+00
1.328000000000000000e+03 0.000000000000000000e+00
1.329000000000000000e+03 0.000000000000000000e+00
1.330000000000000000e+03 0.000000000000000000e+00
1.331000000000000000e+03 0.000000000000000000e+00
1.332000000000000000e+03 0.000000000000000000e+00
1.333000000000000000e+03 0.000000000000000000e+00
1.334000000000000000e+03 0.000000000000000000e+00
1.335000000000000000e+03 0.000000000000000000e+00
1.336000000000000000e+03 0.000000000000000000e+00
1.337000000000000000e+03 0.000000000000000000e+00
1.338000000000000000e+03 0.000000000000000000e+00
1.339000000000000000e+03 0.000000000000000000e+00
1.340000000000000000e+03 0.000000000000000000e+00
1.341000000000000000e+03 0.000000000000000000e+00
1.342000000000000000e+03 0.000000000000000000e+00
1.343000000000000000e+03 0.000000000000000000e+00
1.344000000000000000e+03 0.000000000000000000e+00
1.345000000000000000e+03 0.000000000000000000e+00
1.346000000000000000e+03 0.000000000000000000e+00
1.347000000000000000e+03 0.000000000000000000e+00
1.348000000000000000e+03 0.000000000000000000e+00
1.349000000000000000e+03 0.000000000000000000e+00
1.350000000000000000e+03 0.000000000000000000e+00
1.351000000000000000e+03 0.000000000000000000e+00
1.352000000000000000e+03 0.000000000000000000e+00
1.353000000000000000e+03 0.000000000000000000e+00
1.354000000000000000e+03 0.000000000000000000e+00
1.355000000000000000e+03 0.000000000000000000e+00
1.356000000000000000e+03 0.000000000000000000e+00
1.357000000000000000e+03 0.000000000000000000e+00
1.358000000000000000e+03 0.000000000000000000e+00
1.359000000000000000e+03 0.000000000000000000e+00
1.360000000000000000e+03 0.000000000000000000e+00
1.361000000000000000e+03 0.000000000000000000e+00
1.362000000000000000e+03 0.000000000000000000e+00
1.363000000000000000e+03 0.000000000000000000e+00
1.364000000000000000e+03 0.000000000000000000e+00
1.365000000000000000e+03 0.000000000000000000e+00
1.366000000000000000e+03 0.000000000000000000e+00
1.367000000000000000e+03 0.000000000000000000e+00
1.368000000000000000e+03 0.000000000000000000e+00
1.369000000000000000e+03 0.000000000000000000e+00
1.370000000000000000e+03 0.000000000000000000e+00
1.371000000000000000e+03 0.000000000000000000e+00
1.372000000000000000e+03 0.000000000000000000e+00
1.373000000000000000e+03 0.000000000000000000e+00
1.374000000000000000e+03 0.000000000000000000e+00
1.375000000000000000e+03 0.000000000000000000e+00
1.376000000000000000e+03 0.000000000000000000e+00
1.377000000000000000e+03 0.000000000000000000e+00
1.378000000000000000e+03 0.000000000000000000e+00
1.379000000000000000e+03 0.000000000000000000e+00
1.380000000000000000e+03 0.000000000000000000e+00
1.381000000000000000e+03 0.000000000000000000e+00
1.382000000000000000e+03 0.000000000000000000e+00
1.383000000000000000e+03 0.000000000000000000e+00
1.384000000000000000e+03 0.000000000000000000e+00
1.385000000000000000e+03 0.000000000000000000e+00
1.386000000000000000e+03 0.000000000000000000e+00
1.387000000000000000e+03 0.000000000000000000e+00
1.388000000000000000e+03 0.000000000000000000e+00
1.389000000000000000e+03 0.000000000000000000e+00
1.390000000000000000e+03 0.000000000000000000e+00
1.391000000000000000e+03 0.000000000000000000e+00
1.392000000000000000e+03 0.000000000000000000e+00
1.393000000000000000e+03 0.000000000000000000e+00
1.394000000000000000e+03 0.000000000000000000e+00
1.395000000000000000e+03 0.000000000000000000e+00
1.396000000000000000e+03 0.000000000000000000e+00
1.397000000000000000e+03 0.000000000000000000e+00
1.398000000000000000e+03 0.000000000000000000e+00
1.399000000000000000e+03 0.000000000000000000e+00
1.400000000000000000e+03 0.000000000000000000e+00
1.401000000000000000e+03 0.000000000000000000e+00
1.402000000000000000e+03 0.000000000000000000e+00
1.403000000000000000e+03 0.000000000000000000e+00
1.404000000000000000e+03 0.000000000000000000e+00
1.405000000000000000e+03 0.000000000000000000e+00
1.406000000000000000e+03 0.000000000000000000e+00
1.407000000000000000e+03 0.000000000000000000e+00
1.408000000000000000e+03 0.000000000000000000e+00
1.409000000000000000e+03 0.000000000000000000e+00
1.410000000000000000e+03 0.000000000000000000e+00
1.411000000000000000e+03 0.000000000000000000e+00
1.412000000000000000e+03 0.000000000000000000e+00
1.413000000000000000e+03 0.000000000000000000e+00
1.414000000000000000e+03 0.000000000000000000e+00
1.415000000000000000e+03 0.000000000000000000e+00
1.416000000000000000e+03 0.000000000000000000e+00
1.417000000000000000e+03 0.000000000000000000e+00
1.418000000000000000e+03 0.000000000000000000e+00
1.419000000000000000e+03 0.000000000000000000e+00
1.420000000000000000e+03 0.000000000000000000e+00
1.421000000000000000e+03 0.000000000000000000e+00
1.422000000000000000e+03 0.000000000000000000e+00
1.423000000000000000e+03 0.000000000000000000e+00
1.424000000000000000e+03 0.000000000000000000e+00
1.425000000000000000e+03 0.000000000000000000e+00
1.426000000000000000e+03 0.000000000000000000e+00
1.427000000000000000e+03 0.000000000000000000e+00
1.428000000000000000e+03 0.000000000000000000e+00
1.429000000000000000e+03 0.000000000000000000e+00
1.430000000000000000e+03 0.000000000000000000e+00
1.431000000000000000e+03 0.000000000000000000e+00
1.432000000000000000e+03 0.000000000000000000e+00
1.433000000000000000e+03 0.000000000000000000e+00
1.434000000000000000e+03 0.000000000000000000e+00
1.435000000000000000e+03 0.000000000000000000e+00
1.436000000000000000e+03 0.000000000000000000e+00
1.437000000000000000e+03 0.000000000000000000e+00
1.438000000000000000e+03 0.000000000000000000e+00
1.439000000000000000e+03 0.000000000000000000e+00
1.440000000000000000e+03 0.000000000000000000e+00
1.441000000000000000e+03 0.000000000000000000e+00
1.442000000000000000e+03 0.000000000000000000e+00
1.443000000000000000e+03 0.000000000000000000e+00
1.444000000000000000e+03 0.000000000000000000e+00
1.445000000000000000e+03 0.000000000000000000e+00
1.446000000000000000e+03 0.000000000000000000e+00
1.447000000000000000e+03 0.000000000000000000e+00
1.448000000000000000e+03 0.000000000000000000e+00
1.449000000000000000e+03 0.000000000000000000e+00
1.450000000000000000e+03 0.000000000000000000e+00
1.451000000000000000e+03 0.000000000000000000e+00
1.452000000000000000e+03 0.000000000000000000e+00
1.453000000000000000e+03 0.000000000000000000e+00
1.454000000000000000e+03 0.000000000000000000e+00
1.455000000000000000e+03 0.000000000000000000e+00
1.456000000000000000e+03 0.000000000000000000e+00
1.457000000000000000e+03 0.000000000000000000e+00
1.458000000000000000e+03 0.000000000000000000e+00
1.459000000000000000e+03 0.000000000000000000e+00
1.460000000000000000e+03 0.000000000000000000e+00
1.461000000000000000e+03 0.000000000000000000e+00
1.462000000000000000e+03 0.000000000000000000e+00
1.463000000000000000e+03 0.000000000000000000e+00
1.464000000000000000e+03 0.000000000000000000e+00
1.465000000000000000e+03 0.000000000000000000e+00
1.466000000000000000e+03 0.000000000000000000e+00
1.467000000000000000e+03 0.000000000000000000e+00
1.468000000000000000e+03 0.000000000000000000e+00
1.469000000000000000e+03 0.000000000000000000e+00
1.470000000000000000e+03 0.000000000000000000e+00
1.471000000000000000e+03 0.000000000000000000e+00
1.472000000000000000e+03 0.000000000000000000e+00
1.473000000000000000e+03 0.000000000000000000e+00
1.474000000000000000e+03 0.000000000000000000e+00
1.475000000000000000e+03 0.000000000000000000e+00
1.476000000000000000e+03 0.000000000000000000e+00
1.477000000000000000e+03 0.000000000000000000e+00
1.478000000000000000e+03 0.000000000000000000e+00
1.479000000000000000e+03 0.000000000000000000e+00
1.480000000000000000e+03 0.000000000000000000e+00
1.481000000000000000e+03 0.000000000000000000e+00
1.482000000000000000e+03 0.000000000000000000e+00
1.483000000000000000e+03 0.000000000000000000e+00
1.484000000000000000e+03 0.000000000000000000e+00
1.485000000000000000e+03 0.000000000000000000e+00
1.486000000000000000e+03 0.000000000000000000e+00
1.487000000000000000e+03 0.000000000000000000e+00
1.488000000000000000e+03 0.000000000000000000e+00
1.489000000000000000e+03 0.000000000000000000e+00
1.490000000000000000e+03 0.000000000000000000e+00
1.491000000000000000e+03 0.000000000000000000e+00
1.492000000000000000e+03 0.000000000000000000e+00
1.493000000000000000e+03 0.000000000000000000e+00
1.494000000000000000e+03 0.000000000000000000e+00
1.495000000000000000e+03 0.000000000000000000e+00
1.496000000000000000e+03 0.000000000000000000e+00
1.497000000000000000e+03 0.000000000000000000e+00
1.498000000000000000e+03 0.000000000000000000e+00
1.499000000000000000e+03 0.000000000000000000e+00
1.500000000000000000e+03 0.000000000000000000e+00
